timestamp, ppg
71336125,508
71345743,506
71355755,510
71365797,507
71375841,510
71385856,505
71395900,508
71405944,511
71415957,505
71426000,510
71436042,514
71446056,504
71456099,508
71466137,512
71476146,505
71486190,509
71496232,510
71506273,506
71516284,504
71526328,508
71536373,506
71546386,503
71556430,507
71566478,508
71576496,503
71586542,508
71596589,507
71606605,509
71616651,510
71626696,508
71636713,508
71646758,510
71656803,510
71666819,507
71676864,509
71686909,507
71696923,505
71706970,503
71717014,509
71727029,510
71737074,502
71747120,505
71757164,505
71767179,508
71777222,510
71787264,510
71797278,509
71807324,511
71817370,510
71827386,508
71837435,508
71847483,510
71857501,506
71867550,510
71877600,510
71887619,509
71897670,506
71907723,506
71917742,502
71927791,509
71937840,511
71947860,506
71957910,507
71967959,509
71977978,515
71988030,521
71998078,518
72008124,527
72018142,524
72028189,528
72038237,527
72048253,519
72058300,521
72068345,514
72078362,515
72088407,519
72098455,516
72108468,513
72118514,514
72128558,512
72138571,510
72148617,509
72158665,502
72168681,509
72178733,505
72188784,509
72198805,503
72208856,507
72218905,511
72228926,507
72238978,503
72249030,508
72259082,512
72269103,512
72279151,510
72289203,509
72299224,509
72309274,512
72319322,513
72329340,508
72339392,504
72349441,512
72359461,508
72369511,503
72379560,508
72389580,508
72399628,504
72409678,507
72419696,506
72429746,502
72439797,505
72449816,506
72459863,506
72469908,504
72479917,508
72489960,500
72500000,504
72510044,509
72520060,508
72530109,509
72540152,508
72550167,509
72560215,508
72570262,502
72580280,509
72590326,509
72600371,508
72610395,510
72620451,504
72630504,506
72640526,510
72650583,510
72660638,508
72670661,505
72680714,511
72690760,507
72700778,511
72710824,511
72720872,501
72730888,511
72740932,511
72750977,504
72761022,508
72771037,510
72781081,508
72791126,505
72801140,504
72811185,504
72821230,507
72831243,503
72841292,502
72851342,509
72861359,516
72871402,520
72881448,520
72891465,515
72901513,519
72911561,523
72921579,522
72931629,526
72941676,520
72951694,518
72961747,514
72971799,519
72981820,516
72991870,513
73001919,509
73011964,509
73021981,515
73032031,513
73042082,509
73052100,508
73062147,508
73072191,506
73082205,504
73092252,503
73102298,507
73112312,507
73122359,508
73132406,503
73142422,511
73152470,507
73162517,509
73172532,508
73182579,502
73192625,509
73202640,510
73212686,512
73222732,504
73232749,504
73242797,508
73252844,503
73262891,507
73272907,508
73282953,504
73292998,504
73303017,510
73313064,506
73323104,506
73333117,507
73343161,502
73353205,503
73363213,506
73373249,509
73383291,509
73393307,504
73403350,509
73413393,508
73423409,509
73433453,510
73443497,505
73453511,509
73463556,509
73473601,503
73483614,510
73493658,511
73503705,510
73513748,504
73523760,502
73533802,509
73543846,508
73553862,504
73563908,509
73573954,506
73583965,510
73594010,505
73604056,503
73614071,509
73624115,504
73634164,510
73644180,505
73654224,512
73664269,505
73674283,516
73684339,518
73694393,512
73704409,521
73714456,522
73724506,522
73734528,520
73744579,518
73754629,523
73764677,522
73774696,517
73784747,521
73794797,515
73804819,510
73814870,515
73824922,509
73834942,513
73844994,510
73855042,510
73865058,509
73875110,507
73885158,502
73895176,498
73905229,509
73915280,504
73925301,501
73935353,506
73945401,509
73955423,505
73965473,503
73975523,511
73985543,510
73995590,509
74005641,510
74015690,512
74025708,512
74035757,508
74045808,509
74055828,510
74065877,506
74075924,507
74085939,506
74095988,502
74106035,509
74116051,502
74126100,501
74136147,501
74146168,508
74156217,509
74166268,509
74176289,500
74186338,507
74196388,508
74206408,505
74216461,510
74226512,506
74236533,505
74246591,500
74256648,507
74266703,507
74276725,507
74286778,510
74296833,510
74306859,503
74316914,502
74326967,508
74336986,507
74347036,502
74357085,504
74367104,505
74377153,511
74387203,507
74397225,508
74407273,505
74417323,503
74427343,505
74437390,500
74447439,506
74457458,504
74467506,507
74477554,508
74487572,514
74497620,516
74507666,520
74517714,514
74527730,523
74537774,523
74547823,529
74557840,519
74567886,527
74577935,528
74587950,521
74597997,520
74608044,525
74618060,519
74628109,516
74638161,517
74648182,513
74658230,509
74668280,511
74678299,512
74688347,510
74698398,508
74708421,512
74718474,509
74728523,505
74738543,506
74748590,501
74758638,507
74768687,502
74778704,505
74788749,510
74798793,503
74808811,503
74818860,509
74828907,501
74838924,502
74848974,505
74859023,509
74869044,504
74879094,503
74889143,508
74899162,509
74909211,506
74919258,508
74929279,509
74939326,504
74949375,501
74959398,505
74969451,500
74979501,508
74989519,509
74999565,501
75009614,506
75019662,507
75029677,501
75039727,505
75049775,506
75059793,501
75069841,509
75079889,505
75089905,509
75099950,502
75109995,509
75120010,507
75130056,508
75140101,501
75150117,503
75160164,509
75170209,508
75180222,501
75190267,509
75200312,509
75210329,510
75220375,506
75230425,507
75240443,509
75250492,508
75260538,504
75270584,509
75280602,510
75290649,506
75300699,501
75310720,503
75320772,506
75330822,508
75340842,512
75350893,514
75360946,517
75370966,524
75381014,521
75391065,525
75401090,526
75411140,530
75421193,527
75431216,518
75441270,522
75451319,514
75461339,520
75471389,518
75481438,516
75491459,515
75501512,514
75511566,511
75521616,509
75531637,513
75541689,511
75551741,507
75561761,507
75571812,507
75581865,505
75591885,506
75601933,500
75611982,506
75622003,506
75632050,508
75642100,508
75652122,509
75662172,510
75672222,512
75682241,510
75692288,506
75702333,508
75712349,506
75722398,511
75732447,503
75742465,508
75752513,510
75762565,503
75772616,507
75782639,506
75792685,508
75802735,506
75812758,504
75822813,504
75832864,509
75842886,508
75852939,508
75862989,501
75873010,503
75883063,508
75893110,508
75903131,508
75913179,506
75923227,510
75933245,509
75943294,505
75953344,505
75963358,509
75973403,508
75983449,506
75993466,508
76003516,508
76013562,500
76023609,506
76033622,506
76043668,508
76053714,501
76063729,503
76073777,505
76083824,508
76093837,503
76103882,503
76113928,509
76123946,503
76133997,509
76144049,508
76154066,513
76164113,512
76174161,520
76184177,515
76194224,523
76204269,525
76214285,528
76224332,521
76234378,523
76244391,521
76254435,524
76264482,519
76274530,521
76284554,516
76294602,516
76304653,512
76314673,515
76324725,516
76334775,508
76344793,507
76354839,513
76364887,512
76374907,503
76384959,503
76395007,506
76405022,503
76415067,505
76425116,505
76435131,506
76445178,501
76455229,505
76465246,508
76475295,507
76485344,504
76495359,505
76505406,507
76515458,509
76525508,511
76535526,512
76545575,510
76555624,513
76565644,511
76575696,511
76585745,506
76595761,503
76605811,510
76615860,505
76625875,509
76635922,508
76645970,509
76655984,510
76666033,507
76676080,508
76686098,501
76696150,500
76706200,508
76716218,505
76726266,508
76736313,511
76746335,508
76756386,501
76766433,505
76776481,510
76786498,504
76796547,507
76806596,512
76816615,509
76826664,502
76836711,504
76846725,507
76856773,506
76866821,507
76876835,509
76886880,506
76896925,502
76906939,507
76916986,508
76927031,508
76937047,508
76947096,510
76957147,508
76967167,501
76977216,500
76987264,509
76997280,502
77007324,509
77017372,516
77027421,512
77037437,524
77047483,520
77057531,528
77067549,527
77077597,527
77087643,528
77097661,528
77107707,528
77117754,524
77127768,512
77137815,521
77147864,517
77157881,512
77167928,511
77177976,508
77187994,507
77198041,508
77208090,502
77218107,500
77228157,501
77238206,499
77248220,497
77258266,500
77268312,505
77278361,506
77288379,508
77298425,507
77308471,510
77318486,507
77328528,511
77338570,509
77348583,507
77358625,509
77368668,507
77378683,508
77388731,503
77398777,504
77408793,507
77418840,505
77428889,511
77438905,507
77448952,508
77458999,507
77469016,506
77479061,509
77489104,509
77499117,505
77509163,508
77519205,506
77529247,505
77539259,508
77549303,507
77559347,501
77569358,501
77579400,508
77589442,504
77599456,501
77609499,508
77619541,508
77629556,502
77639600,511
77649642,508
77659655,507
77669700,509
77679743,510
77689757,507
77699801,508
77709845,511
77719856,510
77729897,506
77739942,504
77749956,501
77760002,508
77770045,506
77780089,501
77790102,508
77800147,507
77810194,512
77820212,510
77830258,507
77840302,517
77850318,521
77860361,520
77870405,529
77880420,531
77890467,524
77900512,530
77910527,523
77920573,525
77930618,519
77940630,525
77950672,517
77960715,519
77970729,510
77980774,514
77990820,508
78000836,509
78010882,509
78020928,508
78030975,512
78040988,503
78051035,499
78061080,505
78071093,505
78081137,506
78091182,508
78101195,506
78111238,510
78121282,508
78131298,508
78141342,510
78151388,503
78161400,508
78171439,513
78181474,511
78191483,512
78201525,505
78211567,510
78221578,508
78231619,512
78241660,509
78251674,503
78261718,510
78271762,502
78281807,506
78291821,501
78301866,508
78311913,508
78321925,506
78331974,506
78342019,506
78352037,506
78362087,506
78372136,506
78382159,510
78392209,505
78402262,501
78412285,508
78422328,508
78432375,507
78442393,508
78452442,501
78462492,508
78472510,508
78482556,506
78492605,509
78502624,505
78512670,500
78522722,509
78532768,509
78542784,502
78552830,508
78562875,507
78572889,510
78582933,506
78592980,500
78602997,508
78613042,509
78623088,509
78633103,514
78643149,507
78653195,513
78663211,517
78673257,517
78683306,530
78693322,527
78703369,533
78713412,531
78723424,531
78733470,530
78743515,529
78753531,523
78763576,528
78773620,522
78783667,517
78793684,512
78803728,509
78813774,512
78823783,510
78833825,505
78843868,504
78853884,507
78863933,504
78873978,501
78883993,506
78894039,502
78904086,502
78914103,503
78924152,508
78934204,502
78944226,508
78954277,506
78964325,501
78974342,510
78984388,506
78994433,512
79004451,511
79014495,512
79024538,508
79034579,510
79044590,511
79054633,511
79064675,502
79074690,508
79084738,511
79094785,506
79104799,503
79114843,503
79124891,505
79134906,508
79144950,508
79154992,507
79165000,507
79175043,503
79185089,504
79195104,506
79205147,508
79215192,506
79225205,509
79235249,501
79245295,504
79255309,506
79265356,509
79275403,508
79285451,508
79295468,508
79305516,508
79315563,504
79325580,507
79335628,509
79345674,499
79355692,509
79365741,508
79375790,506
79385808,508
79395855,508
79405900,509
79415916,510
79425964,507
79436012,507
79446028,504
79456070,514
79466117,511
79476131,510
79486172,521
79496216,516
79506232,528
79516282,521
79526329,530
79536375,529
79546391,527
79556436,529
79566482,525
79576497,522
79586543,521
79596586,524
79606602,515
79616646,516
79626699,518
79636722,510
79646773,506
79656817,510
79666832,502
79676881,499
79686931,506
79696946,502
79706993,503
79717038,503
79727051,507
79737097,506
79747143,500
79757156,502
79767202,506
79777245,506
79787286,503
79797300,511
79807346,510
79817392,507
79827407,511
79837452,514
79847499,503
79857512,512
79867558,512
79877605,505
79887623,500
79897670,507
79907720,503
79917739,508
79927789,504
79937841,507
79947863,500
79957915,505
79967967,506
79977988,505
79988037,504
79998085,506
80008101,507
80018146,502
80028192,501
80038241,504
80048256,504
80058302,509
80068347,506
80078365,501
80088411,506
80098456,505
80108469,509
80118517,499
80128562,508
80138576,508
80148619,504
80158666,505
80168683,509
80178730,508
80188777,509
80198794,506
80208842,502
80218889,509
80228904,506
80238950,510
80248997,502
80259016,505
80269065,509
80279114,513
80289161,509
80299176,517
80309222,519
80319267,518
80329284,519
80339329,527
80349376,531
80359395,531
80369445,525
80379492,532
80389512,527
80399560,528
80409605,521
80419617,517
80429660,519
80439706,519
80449718,511
80459763,507
80469808,512
80479824,509
80489877,511
80499933,505
80509958,501
80520014,505
80530067,505
80540112,499
80550127,505
80560177,510
80570223,508
80580237,505
80590280,507
80600326,507
80610342,509
80620385,512
80630432,507
80640448,511
80650496,504
80660544,511
80670560,511
80680606,511
80690653,508
80700666,509
80710710,508
80720753,506
80730768,512
80740812,507
80750857,509
80760871,508
80770914,502
80780957,509
80791002,507
80801016,509
80811056,508
80821101,502
80831113,503
80841152,506
80851199,503
80861215,508
80871260,500
80881304,508
80891316,506
80901360,503
80911406,505
80921419,507
80931465,506
80941510,501
80951527,508
80961570,507
80971615,507
80981633,508
80991683,507
81001733,501
81011751,499
81021800,507
81031847,508
81041895,504
81051909,500
81061954,509
81072003,508
81082018,500
81092066,508
81102116,504
81112134,514
81122180,515
81132226,518
81142245,525
81152290,530
81162338,529
81172355,530
81182404,533
81192450,528
81202466,530
81212514,529
81222563,527
81232583,522
81242633,521
81252682,520
81262701,512
81272745,512
81282792,514
81292840,512
81302854,506
81312902,501
81322950,501
81332969,505
81343020,501
81353068,501
81363087,498
81373136,506
81383188,509
81393209,501
81403261,504
81413311,507
81423332,509
81433382,508
81443425,512
81453444,510
81463493,510
81473543,510
81483563,507
81493613,512
81503663,510
81513681,511
81523734,510
81533784,507
81543833,506
81553851,502
81563897,508
81573939,503
81583951,503
81593999,506
81604046,503
81614063,510
81624110,507
81634156,504
81644173,504
81654217,510
81664262,504
81674277,508
81684322,502
81694363,507
81704376,509
81714420,505
81724464,511
81734480,505
81744526,501
81754573,511
81764592,504
81774640,504
81784688,509
81794735,511
81804751,506
81814796,508
81824841,504
81834857,502
81844906,509
81854952,505
81864965,502
81875010,506
81885051,508
81895065,507
81905112,509
81915159,508
81925178,507
81935225,515
81945273,513
81955288,511
81965335,520
81975383,524
81985399,521
81995452,531
82005502,531
82015519,527
82025568,528
82035618,522
82045665,517
82055684,519
82065732,514
82075778,508
82085790,515
82095836,514
82105881,511
82115896,510
82125943,500
82135990,507
82146006,507
82156051,500
82166097,498
82176115,504
82186162,499
82196212,505
82206231,503
82216282,504
82226330,501
82236350,506
82246401,510
82256450,509
82266467,512
82276514,505
82286560,506
82296607,511
82306626,511
82316675,509
82326722,507
82336737,505
82346789,509
82356841,506
82366860,510
82376909,501
82386956,505
82396974,503
82407021,508
82417062,508
82427075,505
82437123,505
82447168,502
82457185,505
82467235,500
82477287,503
82487307,501
82497359,508
82507408,508
82517431,503
82527481,505
82537530,507
82547582,518
82557605,500
82567656,509
82577704,507
82587722,502
82597771,503
82607821,507
82617836,502
82627886,508
82637933,509
82647951,504
82657993,503
82668037,507
82678051,503
82688095,506
82698142,505
82708161,510
82718209,503
82728257,508
82738273,505
82748321,509
82758368,512
82768386,514
82778436,515
82788483,518
82798531,518
82808548,526
82818592,526
82828640,525
82838660,531
82848705,530
82858749,525
82868763,524
82878808,521
82888854,520
82898874,511
82908924,514
82918970,508
82928989,512
82939039,512
82949087,507
82959106,509
82969157,503
82979207,506
82989227,508
82999276,508
83009323,502
83019341,505
83029390,499
83039440,508
83049488,500
83059504,506
83069547,506
83079594,502
83089615,507
83099669,506
83109725,509
83119750,506
83129804,504
83139856,506
83149879,508
83159930,508
83169982,510
83179999,508
83190051,506
83200101,508
83210124,503
83220176,501
83230229,505
83240251,503
83250301,505
83260350,503
83270372,508
83280422,499
83290475,504
83300526,502
83310544,506
83320594,501
83330645,502
83340664,502
83350713,503
83360765,509
83370788,507
83380841,509
83390892,505
83400913,508
83410967,509
83421022,509
83431042,508
83441094,508
83451147,504
83461169,508
83471225,509
83481281,502
83491304,506
83501359,506
83511413,511
83521439,499
83531491,509
83541542,507
83551593,508
83561616,506
83571667,507
83581718,503
83591740,509
83601786,510
83611837,506
83621858,518
83631907,516
83641960,520
83651982,518
83662035,528
83672089,529
83682109,527
83692163,524
83702212,527
83712233,524
83722287,517
83732341,519
83742363,518
83752415,514
83762465,508
83772485,509
83782534,507
83792584,507
83802632,506
83812650,505
83822699,504
83832750,507
83842772,504
83852826,505
83862879,504
83872900,506
83882953,507
83893005,507
83903024,511
83913072,507
83923124,510
83933146,512
83943199,512
83953255,511
83963277,505
83973330,512
83983379,505
83993395,511
84003445,509
84013499,508
84023517,506
84033566,505
84043614,509
84053664,504
84063684,509
84073733,502
84083778,503
84093796,508
84103844,500
84113891,508
84123905,509
84133951,506
84144000,508
84154018,505
84164064,510
84174110,508
84184124,501
84194167,509
84204209,507
84214224,504
84224272,508
84234321,510
84244340,508
84254386,510
84264433,509
84274452,510
84284502,506
84294550,507
84304598,510
84314614,507
84324660,503
84334705,503
84344719,508
84354764,501
84364808,509
84374821,510
84384868,509
84394917,517
84404932,516
84414978,519
84425023,523
84435039,527
84445087,526
84455133,525
84465149,527
84475194,521
84485237,525
84495250,522
84505297,514
84515345,521
84525360,513
84535407,511
84545454,512
84555500,510
84565515,507
84575561,500
84585606,504
84595620,500
84605668,506
84615717,499
84625734,506
84635781,504
84645832,508
84655855,499
84665902,505
84675949,508
84685966,510
84696015,505
84706062,511
84716077,508
84726123,508
84736165,512
84746181,508
84756233,511
84766282,508
84776297,511
84786342,502
84796386,504
84806430,511
84816447,510
84826494,508
84836544,504
84846557,503
84856602,506
84866647,500
84876664,502
84886715,508
84896763,506
84906782,509
84916830,501
84926878,507
84936897,507
84946945,506
84956996,509
84967014,508
84977064,500
84987110,505
84997129,502
85007173,504
85017216,510
85027233,506
85037275,507
85047322,510
85057368,508
85067383,509
85077426,505
85087469,502
85097484,509
85107530,510
85117577,508
85127594,509
85137644,513
85147694,512
85157712,512
85167762,515
85177815,518
85187838,518
85197890,518
85207941,527
85217962,527
85228015,528
85238067,522
85248084,526
85258137,521
85268189,523
85278209,521
85288258,520
85298306,516
85308351,513
85318370,507
85328418,509
85338465,511
85348482,507
85358526,502
85368573,509
85378591,500
85388642,504
85398692,505
85408711,508
85418760,501
85428809,511
85438829,510
85448882,508
85458938,509
85468959,509
85479011,509
85489062,511
85499083,508
85509134,510
85519181,507
85529198,505
85539247,506
85549296,504
85559344,502
85569361,509
85579409,503
85589456,507
85599472,507
85609517,502
85619563,505
85629578,503
85639624,505
85649667,506
85659679,508
85669723,502
85679768,507
85689784,504
85699833,508
85709880,508
85719891,508
85729930,508
85739975,511
85749991,509
85760037,509
85770089,508
85780109,501
85790160,510
85800209,508
85810261,509
85820279,509
85830328,506
85840374,510
85850393,507
85860444,504
85870495,507
85880515,503
85890562,506
85900608,511
85910631,511
85920680,509
85930729,518
85940748,516
85950800,517
85960852,524
85970872,522
85980924,525
85990977,522
86000998,530
86011046,522
86021094,520
86031117,523
86041169,522
86051221,517
86061271,517
86071291,516
86081344,514
86091397,514
86101417,510
86111469,510
86121518,510
86131536,505
86141587,506
86151634,501
86161647,505
86171692,507
86181742,506
86191763,505
86201822,502
86211876,503
86221898,504
86231957,502
86242015,507
86252043,510
86262098,509
86272151,506
86282174,508
86292228,510
86302283,510
86312336,507
86322359,504
86332410,506
86342463,500
86352486,504
86362542,508
86372598,508
86382623,508
86392679,505
86402732,506
86412753,501
86422811,508
86432866,505
86442884,509
86452934,506
86462982,509
86473000,507
86483047,509
86493095,503
86503113,505
86513161,501
86523210,510
86533228,507
86543276,510
86553323,510
86563369,500
86573386,506
86583435,504
86593483,508
86603498,505
86613544,508
86623590,506
86633604,510
86643649,502
86653692,509
86663704,509
86673752,505
86683801,501
86693818,505
86703861,512
86713910,518
86723928,512
86733977,514
86744025,517
86754041,521
86764086,526
86774132,521
86784148,523
86794195,521
86804242,526
86814288,517
86824304,522
86834351,518
86844397,512
86854413,519
86864461,511
86874509,508
86884526,509
86894575,508
86904619,508
86914635,509
86924680,510
86934725,504
86944741,499
86954790,505
86964834,504
86974849,504
86984894,504
86994944,508
87004963,505
87015014,504
87025063,503
87035082,506
87045132,507
87055183,506
87065233,510
87075250,511
87085299,507
87095347,510
87105367,512
87115416,510
87125459,509
87135478,505
87145527,506
87155578,508
87165593,509
87175637,502
87185680,509
87195688,503
87205732,509
87215773,505
87225787,502
87235834,501
87245881,507
87255897,507
87265943,499
87275988,509
87286005,508
87296051,506
87306097,504
87316143,501
87326162,510
87336214,501
87346262,505
87356280,508
87366332,509
87376379,503
87386392,508
87396434,510
87406479,501
87416494,507
87426542,507
87436588,510
87446606,508
87456656,509
87466706,510
87476726,507
87486777,500
87496827,508
87506845,506
87516894,510
87526941,508
87536956,512
87547002,514
87557047,518
87567093,518
87577107,526
87587152,520
87597199,527
87607212,528
87617253,528
87627296,528
87637308,525
87647352,522
87657403,519
87667423,517
87677475,518
87687524,508
87697543,512
87707595,509
87717645,509
87727659,506
87737705,504
87747751,507
87757764,502
87767811,505
87777858,505
87787873,506
87797920,503
87807964,507
87818009,501
87828023,506
87838067,508
87848110,508
87858125,501
87868169,504
87878217,504
87888231,502
87898278,504
87908323,509
87918340,505
87928386,508
87938427,511
87948440,510
87958486,506
87968532,507
87978542,501
87988582,505
87998623,502
88008633,504
88018672,505
88028712,504
88038727,505
88048774,507
88058820,502
88068866,507
88078880,503
88088928,503
88098977,507
88108996,508
88119044,506
88129092,506
88139110,501
88149157,504
88159204,507
88169219,506
88179263,503
88189308,501
88199326,514
88209373,508
88219421,501
88229441,507
88239492,500
88249543,506
88259561,507
88269611,510
88279659,504
88289674,510
88299722,508
88309772,502
88319821,503
88329834,507
88339881,508
88349928,500
88359942,510
88369986,505
88380034,510
88390047,514
88400094,517
88410141,515
88420157,520
88430204,522
88440248,528
88450264,526
88460310,529
88470359,518
88480376,524
88490426,518
88500473,521
88510489,513
88520533,516
88530574,515
88540586,505
88550629,511
88560676,507
88570719,505
88580729,508
88590769,507
88600812,508
88610823,502
88620865,504
88630910,508
88640932,509
88650981,508
88661025,508
88671041,500
88681084,505
88691129,508
88701145,511
88711190,512
88721235,510
88731251,507
88741294,510
88751344,508
88761362,507
88771411,504
88781458,506
88791476,505
88801520,510
88811567,507
88821613,505
88831631,506
88841678,501
88851723,505
88861737,508
88871786,499
88881835,507
88891854,504
88901901,507
88911946,507
88921964,506
88932013,506
88942061,509
88952077,508
88962130,501
88972183,504
88982201,503
88992248,509
89002296,508
89012312,505
89022359,507
89032407,506
89042421,508
89052467,504
89062514,508
89072561,510
89082576,508
89092620,503
89102666,502
89112679,508
89122724,506
89132771,506
89142783,499
89152826,508
89162869,507
89172882,505
89182924,503
89192964,509
89202976,511
89213021,506
89223068,509
89233081,515
89243125,517
89253171,524
89263186,527
89273232,526
89283276,524
89293291,517
89303336,521
89313380,518
89323424,521
89333437,516
89343480,516
89353524,512
89363536,507
89373578,510
89383622,510
89393635,503
89403680,504
89413725,502
89423737,508
89433781,502
89443825,504
89453841,499
89463889,505
89473935,507
89483952,509
89493998,511
89504045,504
89514060,510
89524105,506
89534150,512
89544166,509
89554211,509
89564254,512
89574298,506
89584313,510
89594357,506
89604403,492
89614418,502
89624461,509
89634504,508
89644516,502
89654560,506
89664606,508
89674622,509
89684668,505
89694714,507
89704731,508
89714773,507
89724821,511
89734836,502
89744883,504
89754927,503
89764944,506
89774992,499
89785035,502
89795047,507
89805095,508
89815143,508
89825189,511
89835204,507
89845252,506
89855299,503
89865315,505
89875360,500
89885404,507
89895421,510
89905470,511
89915519,507
89925538,504
89935582,508
89945627,510
89955641,509
89965688,507
89975735,506
89985753,506
89995800,510
90005844,512
90015857,514
90025903,512
90035948,519
90045962,520
90056010,525
90066056,521
90076101,529
90086117,528
90096166,522
90106212,525
90116226,523
90126268,515
90136314,523
90146327,519
90156372,515
90166419,514
90176438,514
90186485,496
90196529,503
90206541,508
90216584,503
90226630,510
90236645,508
90246690,504
90256734,507
90266748,507
90276793,509
90286839,502
90296853,503
90306896,510
90316940,510
90326983,504
90336992,510
90347036,506
90357078,508
90367091,511
90377132,510
90387170,508
90397182,506
90407226,512
90417268,503
90427278,509
90437322,510
90447365,508
90457382,511
90467429,508
90477475,508
90487494,508
90497542,500
90507590,506
90517608,507
90527657,505
90537706,507
90547723,508
90557769,502
90567817,507
90577862,508
90587879,509
90597927,506
90607972,512
90617988,504
90628035,503
90638081,507
90648096,511
90658146,508
90668195,508
90678216,510
90688264,510
90698312,512
90708329,510
90718375,510
90728424,507
90738441,512
90748491,505
90758541,513
90768559,507
90778611,509
90788665,508
90798688,508
90808739,507
90818790,512
90828840,510
90838862,517
90848913,523
90858961,515
90868980,526
90879028,526
90889074,525
90899089,528
90909134,525
90919180,524
90929192,525
90939239,519
90949285,518
90959298,517
90969343,518
90979386,517
90989398,513
90999438,507
91009481,510
91019499,505
91029548,509
91039594,503
91049608,506
91059654,508
91069698,506
91079745,504
91089762,508
91099808,506
91109853,510
91119868,500
91129913,503
91139955,501
91149967,509
91160012,510
91170056,505
91180070,508
91190115,512
91200162,510
91210182,511
91220231,509
91230278,507
91240290,510
91250334,505
91260378,502
91270392,507
91280439,506
91290483,508
91300497,510
91310545,505
91320590,511
91330634,500
91340649,504
91350695,503
91360741,505
91370755,502
91380799,506
91390845,505
91400858,510
91410894,509
91420935,508
91430948,508
91440994,503
91451039,504
91461050,501
91471097,507
91481145,510
91491164,508
91501216,501
91511269,501
91521286,502
91531336,504
91541386,502
91551406,504
91561458,504
91571510,502
91581561,502
91591583,504
91601634,502
91611682,517
91621702,509
91631752,510
91641801,508
91651820,514
91661869,517
91671918,520
91681935,520
91691981,521
91702030,519
91712048,526
91722096,529
91732143,522
91742160,528
91752208,519
91762256,522
91772275,518
91782321,514
91792367,513
91802383,512
91812427,507
91822471,510
91832518,505
91842529,503
91852574,507
91862622,509
91872639,506
91882688,505
91892739,503
91902754,508
91912801,507
91922848,507
91932866,508
91942917,502
91952966,506
91962983,512
91973032,508
91983080,510
91993094,503
92003139,509
92013186,510
92023207,512
92033254,511
92043299,511
92053313,507
92063357,508
92073403,505
92083447,501
92093461,504
92103506,506
92113550,505
92123564,511
92133609,509
92143655,501
92153669,508
92163715,501
92173764,507
92183786,510
92193839,507
92203888,508
92213905,507
92223955,508
92234004,505
92244022,509
92254071,506
92264123,508
92274142,510
92284193,506
92294244,506
92304261,504
92314310,507
92324359,508
92334411,505
92344430,502
92354480,503
92364528,508
92374541,505
92384586,504
92394635,500
92404655,508
92414704,508
92424749,507
92434764,508
92444808,506
92454854,509
92464873,506
92474921,518
92484968,521
92494986,523
92505035,523
92515084,527
92525105,521
92535152,527
92545201,520
92555221,518
92565268,522
92575315,520
92585365,521
92595383,515
92605432,509
92615481,510
92625497,510
92635545,510
92645599,509
92655621,505
92665675,505
92675728,501
92685749,506
92695801,508
92705857,508
92715880,509
92725934,503
92735981,506
92745996,506
92756041,512
92766084,511
92776099,510
92786140,511
92796184,509
92806200,511
92816246,509
92826290,508
92836337,506
92846352,509
92856398,505
92866447,511
92876464,510
92886508,504
92896553,511
92906566,509
92916611,510
92926658,503
92936674,505
92946724,498
92956771,501
92966791,503
92976840,503
92986886,504
92996904,505
93006953,508
93017003,510
93027023,507
93037067,507
93047112,510
93057130,509
93067179,507
93077226,504
93087272,501
93097288,509
93107335,504
93117385,506
93127399,510
93137445,502
93147490,503
93157507,501
93167554,508
93177600,506
93187615,509
93197664,507
93207711,508
93217728,509
93227775,506
93237826,512
93247843,518
93257889,514
93267930,524
93277941,522
93287989,526
93298040,529
93308056,525
93318104,521
93328150,523
93338197,525
93348211,520
93358257,517
93368303,513
93378322,510
93388371,507
93398418,508
93408435,509
93418484,507
93428529,506
93438541,504
93448588,503
93458634,510
93468653,506
93478701,503
93488750,504
93498769,502
93508816,498
93518863,506
93528880,500
93538926,510
93548971,504
93558986,507
93569034,508
93579081,507
93589131,505
93599150,510
93609197,510
93619246,510
93629262,506
93639311,510
93649357,504
93659373,505
93669421,508
93679467,501
93689484,501
93699531,510
93709579,503
93719593,502
93729636,507
93739681,511
93749698,507
93759744,507
93769793,507
93779812,504
93789862,507
93799910,507
93809924,502
93819969,505
93830013,510
93840058,508
93850072,510
93860117,506
93870162,506
93880172,511
93890214,510
93900256,506
93910268,510
93920315,508
93930360,507
93940371,503
93950418,508
93960462,509
93970475,508
93980520,503
93990564,507
94000576,502
94010625,506
94020673,508
94030687,513
94040736,516
94050786,516
94060803,515
94070851,517
94080898,520
94090948,525
94100965,531
94111013,522
94121063,528
94131080,525
94141121,523
94151163,523
94161176,523
94171219,516
94181264,513
94191282,517
94201327,510
94211373,512
94221390,510
94231438,509
94241483,509
94251498,509
94261547,508
94271597,509
94281618,507
94291669,503
94301719,507
94311739,508
94321794,506
94331844,509
94341895,501
94351914,506
94361962,512
94372011,506
94382028,508
94392076,511
94402127,509
94412148,505
94422196,507
94432246,510
94442262,506
94452311,510
94462359,506
94472377,504
94482426,501
94492475,501
94502492,508
94512536,504
94522579,506
94532595,499
94542642,508
94552691,508
94562704,504
94572751,506
94582798,506
94592847,502
94602865,508
94612912,501
94622962,506
94632982,505
94643032,503
94653084,506
94663102,508
94673153,504
94683206,503
94693226,509
94703277,509
94713328,509
94723349,506
94733399,507
94743452,506
94753475,508
94763525,507
94773576,506
94783597,507
94793649,504
94803700,503
94813722,502
94823774,507
94833829,502
94843882,500
94853903,503
94863958,510
94874012,509
94884033,510
94894085,514
94904138,513
94914160,521
94924214,516
94934269,524
94944294,521
94954349,528
94964403,519
94974424,526
94984476,525
94994528,521
95004548,519
95014597,519
95024646,516
95034664,512
95044712,514
95054760,512
95064780,507
95074828,510
95084876,506
95094924,502
95104944,510
95114994,507
95125044,500
95135063,501
95145115,506
95155166,507
95165188,508
95175240,506
95185294,510
95195313,511
95205362,507
95215408,509
95225426,510
95235472,510
95245523,504
95255542,504
95265593,510
95275644,509
95285666,505
95295722,506
95305776,504
95315801,503
95325854,507
95335901,511
95345950,504
95355968,504
95366015,507
95376062,501
95386082,508
95396131,504
95406176,505
95416190,508
95426238,509
95436287,503
95446304,511
95456351,506
95466399,510
95476415,501
95486466,508
95496518,505
95506538,507
95516587,511
95526634,508
95536652,509
95546698,503
95556748,508
95566765,507
95576812,506
95586860,501
95596907,505
95606923,509
95616967,502
95627014,507
95637034,508
95647083,503
95657132,508
95667148,507
95677198,504
95687247,507
95697270,509
95707319,509
95717369,507
95727390,512
95737443,513
95747496,521
95757515,520
95767563,527
95777614,524
95787635,524
95797690,530
95807744,521
95817765,526
95827817,522
95837867,524
95847919,522
95857937,516
95867988,515
95878039,513
95888059,513
95898111,503
95908163,509
95918183,504
95928233,510
95938281,505
95948297,506
95958347,501
95968396,499
95978415,501
95988465,508
95998515,502
96008538,509
96018591,509
96028640,510
96038655,512
96048701,510
96058744,508
96068758,507
96078804,510
96088851,509
96098903,506
96108924,511
96118976,505
96129028,509
96139044,508
96149093,506
96159142,505
96169160,510
96179207,507
96189254,503
96199273,509
96209325,508
96219375,501
96229392,503
96239438,499
96249487,506
96259508,502
96269557,509
96279601,508
96289615,508
96299662,505
96309713,509
96319731,508
96329779,510
96339826,500
96349874,505
96359891,505
96369941,507
96379993,505
96390012,507
96400059,508
96410107,509
96420122,507
96430168,505
96440214,502
96450231,508
96460280,508
96470330,508
96480350,509
96490399,507
96500450,508
96510471,511
96520522,511
96530572,509
96540595,510
96550649,502
96560701,511
96570724,512
96580777,510
96590825,512
96600875,518
96610894,523
96620946,524
96630999,530
96641024,526
96651072,527
96661121,525
96671141,529
96681192,527
96691241,524
96701259,520
96711308,513
96721358,516
96731379,514
96741430,511
96751482,508
96761501,512
96771550,507
96781601,510
96791622,503
96801674,508
96811726,505
96821748,499
96831801,501
96841855,505
96851909,500
96861935,507
96871986,506
96882035,507
96892057,508
96902110,506
96912166,505
96922185,509
96932231,511
96942280,509
96952298,503
96962347,511
96972397,505
96982414,503
96992461,506
97002510,502
97012526,508
97022572,508
97032616,504
97042633,507
97052681,499
97062729,506
97072746,506
97082793,505
97092844,507
97102890,506
97112907,501
97122955,500
97133002,503
97143020,509
97153068,506
97163115,508
97173133,502
97183181,510
97193229,507
97203246,503
97213290,507
97223337,505
97233353,509
97243398,509
97253445,508
97263460,510
97273507,502
97283555,509
97293574,508
97303622,503
97313673,509
97323692,505
97333738,507
97343785,510
97353835,508
97363855,510
97373905,508
97383956,506
97393974,509
97404023,507
97414069,506
97424083,507
97434128,513
97444170,518
97454183,516
97464232,519
97474281,522
97484300,524
97494349,531
97504398,526
97514415,529
97524464,520
97534513,522
97544532,524
97554581,520
97564629,519
97574649,515
97584697,516
97594750,516
97604801,513
97614820,513
97624871,516
97634921,508
97644937,509
97654988,503
97665036,507
97675053,502
97685102,509
97695148,502
97705168,506
97715215,508
97725260,503
97735278,503
97745326,511
97755375,512
97765394,503
97775446,508
97785498,508
97795517,513
97805571,513
97815621,505
97825639,505
97835689,504
97845737,510
97855786,508
97865808,505
97875861,510
97885916,509
97895938,508
97905987,508
97916036,508
97926057,505
97936107,509
97946158,508
97956179,509
97966228,509
97976276,501
97986295,508
97996345,509
98006394,503
98016414,509
98026464,508
98036513,503
98046531,509
98056581,510
98066628,510
98076640,511
98086687,508
98096736,505
98106784,505
98116798,510
98126844,503
98136891,505
98146905,501
98156955,508
98167005,510
98177020,510
98187067,507
98197115,502
98207132,509
98217179,508
98227226,506
98237245,506
98247293,500
98257343,506
98267368,502
98277424,509
98287476,509
98297497,504
98307546,509
98317594,517
98327612,519
98337660,522
98347711,520
98357761,522
98367776,527
98377824,528
98387872,526
98397887,521
98407933,520
98417981,518
98427998,519
98438046,519
98448093,512
98458108,512
98468155,512
98478206,506
98488225,510
98498268,503
98508315,506
98518328,510
98528372,508
98538417,505
98548434,502
98558481,503
98568530,507
98578546,502
98588594,503
98598639,504
98608685,501
98618699,507
98628745,510
98638789,508
98648805,504
98658852,504
98668895,512
98678909,512
98688952,507
98698992,509
98709004,511
98719045,508
98729092,506
98739107,511
98749156,510
98759211,507
98769233,507
98779283,503
98789327,507
98799336,509
98809382,510
98819427,508
98829444,507
98839491,508
98849536,509
98859582,506
98869599,509
98879645,494
98889691,509
98899705,508
98909753,508
98919805,506
98929824,512
98939873,508
98949923,503
98959940,512
98969989,508
98980039,509
98990056,512
99000104,511
99010154,515
99020171,506
99030218,506
99040264,509
99050279,508
99060328,507
99070376,511
99080395,506
99090444,502
99100493,504
99110537,507
99120551,513
99130596,512
99140639,515
99150655,515
99160702,518
99170749,519
99180767,519
99190818,524
99200864,525
99210880,524
99220927,523
99230976,521
99240993,519
99251039,520
99261089,516
99271104,513
99281154,513
99291203,512
99301220,512
99311269,506
99321317,501
99331332,505
99341375,499
99351422,503
99361467,507
99371481,506
99381527,503
99391572,505
99401588,507
99411633,502
99421677,510
99431691,507
99441737,506
99451783,511
99461799,508
99471845,513
99481895,509
99491912,506
99501961,511
99512008,507
99522021,506
99532066,507
99542113,510
99552131,509
99562176,506
99572221,501
99582234,508
99592280,509
99602325,509
99612369,505
99622384,507
99632428,506
99642474,507
99652489,504
99662536,503
99672582,503
99682599,507
99692644,507
99702691,507
99712705,506
99722751,507
99732800,508
99742816,508
99752861,503
99762906,502
99772919,510
99782964,504
99793008,505
99803020,507
99813060,511
99823104,510
99833121,508
99843168,503
99853215,506
99863262,507
99873278,508
99883325,510
99893370,505
99903384,507
99913429,510
99923473,510
99933484,511
99943523,515
99953565,517
99963575,518
99973618,523
99983658,524
99993669,529
100003712,527
100013757,526
100023770,520
100033810,521
100043855,518
100053867,523
100063912,518
100073953,517
100083962,512
100094004,505
100104045,507
100114088,514
100124106,508
100134157,505
100144209,511
100154227,508
100164277,507
100174324,506
100184343,504
100194390,506
100204438,505
100214456,502
100224502,508
100234551,506
100244569,502
100254618,504
100264664,508
100274682,510
100284730,508
100294776,504
100304793,505
100314842,510
100324888,509
100334904,509
100344948,506
100354993,507
100365037,506
100375050,501
100385092,508
100395136,502
100405148,503
100415191,506
100425235,501
100435247,507
100445290,507
100455331,504
100465342,506
100475388,510
100485432,508
100495441,507
100505482,506
100515527,505
100525542,519
100535586,508
100545629,505
100555646,510
100565694,503
100575740,508
100585758,511
100595807,507
100605855,508
100615902,511
100625920,502
100635966,510
100646011,501
100656027,506
100666074,511
100676125,502
100686141,505
100696189,511
100706238,508
100716256,507
100726310,508
100736362,512
100746378,516
100756431,520
100766483,517
100776503,527
100786551,523
100796599,528
100806617,524
100816666,523
100826716,524
100836737,522
100846784,518
100856832,520
100866876,518
100876894,509
100886942,513
100896991,513
100907008,504
100917057,511
100927107,511
100937125,507
100947175,500
100957219,499
100967237,503
100977286,504
100987335,507
100997353,504
101007401,510
101017449,509
101027467,505
101037516,505
101047562,504
101057581,506
101067627,511
101077674,507
101087688,512
101097736,511
101107784,511
101117833,510
101127857,510
101137910,505
101147960,510
101157980,505
101168028,506
101178075,501
101188094,507
101198142,501
101208191,507
101218209,506
101228252,502
101238294,508
101248308,511
101258353,509
101268398,502
101278411,508
101288455,502
101298500,505
101308515,508
101318561,507
101328609,503
101338626,502
101348680,503
101358729,510
101368776,510
101378796,510
101388844,507
101398892,503
101408908,507
101418956,508
101429004,503
101439023,501
101449071,507
101459117,506
101469135,507
101479185,503
101489234,510
101499250,507
101509297,508
101519344,511
101529359,508
101539404,514
101549452,515
101559473,517
101569523,521
101579574,527
101589593,528
101599643,526
101609693,526
101619743,528
101629762,526
101639813,522
101649867,513
101659884,513
101669938,516
101679986,514
101690001,506
101700045,506
101710086,510
101720105,512
101730154,508
101740202,505
101750218,506
101760268,505
101770316,508
101780334,509
101790382,500
101800428,508
101810444,508
101820493,509
101830539,503
101840558,509
101850607,502
101860651,510
101870696,512
101880709,506
101890754,505
101900800,509
101910816,509
101920862,512
101930907,510
101940921,508
101950967,500
101961009,502
101971022,506
101981067,505
101991111,501
102001125,506
102011170,510
102021216,508
102031229,505
102041273,507
102051317,510
102061333,506
102071376,507
102081419,508
102091434,504
102101479,506
102111525,507
102121571,506
102131588,501
102141634,510
102151682,509
102161699,509
102171747,508
102181792,506
102191805,504
102201848,504
102211888,509
102221900,508
102231942,507
102241982,502
102251994,503
102262032,509
102272073,505
102282084,508
102292126,508
102302167,509
102312180,506
102322226,506
102332274,504
102342292,506
102352345,503
102362395,515
102372437,518
102382449,518
102392495,523
102402542,529
102412556,525
102422601,530
102432645,524
102442652,525
102452694,525
102462740,525
102472756,525
102482801,523
102492845,518
102502856,513
102512893,514
102522937,513
102532953,509
102543000,508
102553043,513
102563055,513
102573098,508
102583145,507
102593160,506
102603207,502
102613254,504
102623299,508
102633310,504
102643355,506
102653399,504
102663413,508
102673462,506
102683509,512
102693525,511
102703575,513
102713626,510
102723644,505
102733692,510
102743737,508
102753752,509
102763798,507
102773841,510
102783853,502
102793896,509
102803938,511
102813954,505
102824001,509
102834046,502
102844063,508
102854105,508
102864153,510
102874201,500
102884215,507
102894261,502
102904306,500
102914320,510
102924365,510
102934412,505
102944424,508
102954469,507
102964514,499
102974529,504
102984573,508
102994620,502
103004634,504
103014680,509
103024725,503
103034738,507
103044782,507
103054826,511
103064840,503
103074887,510
103084933,502
103094950,508
103104996,510
103115040,508
103125085,506
103135097,504
103145139,511
103155186,505
103165201,510
103175248,511
103185293,507
103195306,514
103205351,515
103215399,518
103225412,523
103235459,525
103245505,530
103255520,532
103265566,530
103275615,530
103285633,528
103295683,525
103305734,524
103315754,515
103325803,517
103335853,519
103345873,513
103355919,515
103365971,512
103376019,513
103386038,508
103396090,504
103406139,508
103416157,510
103426208,511
103436260,505
103446279,501
103456332,504
103466383,509
103476403,510
103486457,500
103496510,509
103506529,507
103516578,508
103526628,504
103536648,509
103546698,509
103556749,510
103566766,508
103576815,508
103586865,507
103596885,507
103606932,507
103616983,507
103627035,505
103637056,507
103647107,506
103657155,502
103667172,505
103677223,506
103687277,509
103697301,508
103707358,508
103717413,509
103727438,503
103737492,507
103747544,503
103757565,502
103767617,505
103777666,506
103787684,508
103797732,505
103807783,502
103817805,504
103827854,504
103837908,505
103847927,508
103857974,500
103868020,508
103878071,508
103888092,508
103898142,502
103908194,508
103918215,504
103928267,511
103938320,506
103948342,509
103958393,505
103968442,508
103978459,505
103988504,504
103998551,508
104008569,509
104018618,502
104028667,507
104038684,509
104048731,515
104058780,518
104068798,513
104078847,518
104088891,518
104098908,527
104108952,531
104118994,528
104129036,526
104139049,527
104149094,528
104159137,525
104169151,515
104179196,516
104189241,516
104199253,514
104209300,511
104219348,513
104229365,515
104239411,512
104249458,508
104259473,508
104269516,510
104279562,503
104289576,510
104299621,504
104309668,504
104319682,503
104329726,503
104339772,508
104349787,510
104359832,505
104369880,508
104379927,503
104389942,506
104399987,507
104410033,508
104420052,505
104430099,508
104440148,512
104450167,507
104460219,511
104470268,503
104480289,506
104490338,507
104500386,502
104510404,505
104520454,508
104530506,505
104540523,509
104550571,506
104560618,503
104570632,500
104580682,507
104590733,509
104600751,501
104610804,509
104620854,506
104630903,504
104640921,510
104650969,505
104661019,507
104671038,500
104681091,510
104691142,509
104701162,507
104711212,501
104721261,509
104731278,509
104741326,510
104751374,509
104761392,507
104771441,503
104781492,508
104791513,507
104801560,505
104811607,508
104821623,502
104831672,510
104841719,502
104851737,506
104861787,506
104871835,505
104881880,508
104891893,506
104901939,511
104911983,511
104921999,516
104932041,519
104942085,524
104952099,525
104962144,526
104972188,521
104982201,528
104992245,528
105002291,528
105012307,529
105022354,525
105032400,516
105042414,522
105052460,515
105062505,517
105072519,515
105082564,508
105092606,512
105102619,512
105112662,510
105122706,502
105132752,502
105142767,503
105152811,503
105162856,506
105172866,502
105182907,510
105192949,507
105202960,504
105213005,510
105223050,508
105233061,510
105243106,507
105253152,507
105263165,512
105273208,511
105283252,511
105293266,509
105303310,503
105313354,508
105323365,511
105333405,509
105343444,507
105353452,505
105363485,507
105373523,505
105383562,510
105393570,500
105403610,503
105413645,502
105423656,505
105433699,505
105443740,500
105453750,506
105463792,507
105473836,505
105483847,507
105493887,509
105503929,506
105513937,508
105523974,507
105534017,502
105544029,502
105554076,504
105564121,507
105574135,505
105584184,507
105594231,508
105604248,503
105614296,508
105624347,507
105634399,507
105644416,501
105654467,510
105664519,507
105674539,509
105684595,504
105694649,508
105704672,509
105714726,507
105724782,500
105734808,501
105744865,506
105754923,508
105764949,510
105775006,508
105785061,509
105795086,505
105805136,507
105815183,511
105825200,517
105835248,512
105845296,515
105855312,521
105865361,527
105875408,524
105885456,522
105895474,522
105905525,521
105915578,518
105925599,514
105935648,517
105945697,513
105955715,516
105965764,513
105975812,512
105985826,505
105995876,511
106005927,503
106015946,501
106025995,504
106036044,506
106046066,508
106056118,505
106066170,506
106076188,505
106086238,501
106096291,499
106106310,502
106116357,511
106126399,509
106136444,510
106146462,509
106156512,508
106166563,511
106176586,510
106186636,508
106196686,509
106206703,510
106216752,509
106226802,508
106236819,507
106246867,509
106256917,507
106266938,501
106276989,504
106287040,501
106297060,503
106307107,502
106317160,503
106327181,508
106337233,508
106347282,503
106357302,504
106367351,506
106377399,507
106387448,510
106397467,510
106407518,508
106417566,507
106427582,510
106437627,509
106447672,505
106457688,504
106467735,507
106477783,509
106487801,509
106497850,507
106507896,508
106517913,502
106527964,507
106538010,508
106548026,505
106558070,508
106568112,502
106578124,504
106588167,509
106598212,508
106608229,507
106618275,506
106628318,512
106638365,509
106648386,512
106658434,523
106668483,523
106678501,521
106688550,525
106698598,519
106708616,526
106718660,517
106728706,520
106738718,521
106748761,519
106758807,516
106768819,514
106778864,514
106788909,504
106798924,507
106808967,505
106819008,511
106829022,506
106839071,506
106849117,507
106859129,509
106869174,508
106879222,506
106889272,507
106899291,505
106909339,503
106919385,504
106929399,510
106939444,511
106949493,504
106959511,506
106969559,503
106979607,510
106989624,511
106999671,504
107009715,510
107019727,505
107029769,510
107039811,509
107049819,508
107059857,506
107069893,508
107079896,509
107089937,509
107099980,509
107109992,508
107120037,503
107130079,502
107140121,503
107150133,508
107160174,505
107170219,502
107180232,510
107190272,509
107200317,509
107210330,507
107220375,503
107230421,510
107240433,507
107250474,510
107260516,507
107270527,506
107280571,508
107290616,507
107300628,506
107310670,506
107320713,503
107330723,510
107340767,507
107350812,503
107360825,507
107370872,507
107380919,509
107390963,509
107400976,512
107411022,514
107421067,513
107431081,517
107441124,517
107451167,523
107461180,527
107471223,528
107481267,527
107491281,531
107501328,526
107511373,525
107521386,524
107531430,519
107541474,513
107551491,519
107561540,513
107571585,511
107581595,507
107591634,513
107601673,505
107611686,509
107621730,503
107631772,504
107641817,501
107651833,507
107661881,505
107671925,504
107681935,508
107691979,503
107702025,503
107712048,508
107722100,507
107732148,510
107742164,508
107752211,501
107762257,510
107772275,501
107782321,502
107792369,505
107802387,508
107812434,500
107822483,509
107832501,500
107842551,508
107852599,501
107862618,504
107872666,506
107882719,503
107892766,502
107902786,505
107912835,509
107922886,506
107932907,507
107942958,502
107953005,507
107963021,508
107973068,503
107983115,501
107993130,510
108003173,510
108013218,502
108023228,507
108033273,503
108043317,502
108053330,506
108063372,508
108073415,504
108083427,507
108093470,506
108103514,508
108113525,508
108123569,502
108133612,500
108143657,502
108153671,508
108163713,508
108173760,509
108183777,509
108193823,505
108203870,505
108213882,517
108223926,518
108233968,517
108243980,521
108254024,527
108264070,527
108274086,524
108284134,523
108294180,530
108304196,529
108314238,525
108324291,523
108334313,519
108344367,510
108354415,509
108364433,510
108374480,513
108384528,506
108394574,505
108404591,505
108414637,504
108424683,505
108434697,505
108444743,504
108454789,504
108464805,504
108474851,504
108484897,503
108494912,504
108504960,507
108515005,506
108525021,504
108535068,509
108545119,509
108555134,506
108565181,514
108575228,503
108585244,503
108595290,512
108605339,509
108615358,503
108625408,507
108635458,509
108645508,508
108655528,508
108665579,503
108675628,503
108685645,505
108695694,503
108705741,509
108715757,500
108725804,505
108735852,506
108745870,505
108755918,508
108765964,505
108775979,501
108786029,506
108796078,508
108806095,504
108816142,510
108826186,503
108836199,502
108846245,506
108856292,503
108866309,507
108876358,508
108886406,504
108896453,508
108906470,506
108916517,507
108926562,506
108936579,507
108946625,503
108956667,502
108966680,507
108976726,509
108986773,508
108996792,502
109006839,507
109016881,510
109026894,505
109036939,508
109046982,514
109056997,514
109067040,523
109077085,524
109087098,527
109097142,530
109107186,531
109117201,529
109127246,524
109137293,524
109147339,519
109157354,524
109167407,518
109177458,518
109187475,510
109197527,512
109207573,513
109217591,512
109227640,509
109237690,503
109247707,503
109257755,509
109267804,507
109277818,502
109287863,503
109297909,505
109307927,506
109317975,506
109328025,506
109338041,505
109348083,504
109358128,511
109368147,508
109378195,506
109388244,510
109398293,509
109408313,508
109418361,502
109428409,507
109438429,510
109448474,505
109458519,507
109468534,507
109478580,508
109488624,506
109498636,499
109508681,506
109518725,509
109528739,506
109538782,509
109548828,508
109558845,504
109568889,509
109578934,508
109588950,501
109598999,508
109609047,508
109619062,507
109629106,510
109639153,507
109649203,508
109659225,508
109669278,508
109679324,500
109689336,505
109699382,505
109709428,510
109719446,501
109729493,507
109739540,503
109749559,511
109759607,501
109769655,506
109779671,510
109789718,506
109799764,509
109809778,503
109819825,511
109829870,509
109839887,511
109849932,506
109859978,504
109869993,512
109880038,512
109890086,515
109900129,516
109910145,518
109920188,518
109930233,529
109940247,530
109950291,525
109960338,525
109970352,532
109980401,526
109990449,522
110000466,520
110010512,516
110020557,514
110030575,514
110040624,508
110050674,511
110060694,504
110070745,509
110080794,506
110090812,506
110100860,507
110110907,509
110120925,508
110130973,503
110141023,506
110151072,503
110161088,501
110171134,509
110181179,507
110191194,507
110201237,510
110211282,512
110221294,509
110231340,509
110241386,511
110251401,508
110261442,511
110271484,509
110281496,510
110291534,500
110301575,508
110311586,501
110321630,500
110331674,507
110341688,503
110351734,506
110361779,504
110371794,504
110381841,506
110391886,503
110401928,499
110411937,502
110421980,502
110432022,506
110442035,509
110452080,510
110462123,506
110472137,510
110482183,506
110492229,510
110502243,509
110512288,507
110522336,503
110532350,509
110542394,509
110552438,502
110562454,500
110572503,508
110582552,505
110592568,506
110602615,506
110612662,500
110622676,504
110632717,509
110642763,507
110652809,506
110662823,502
110672868,503
110682914,502
110692924,510
110702962,510
110713005,510
110723015,510
110733058,520
110743101,522
110753112,516
110763157,527
110773201,528
110783216,531
110793259,529
110803304,526
110813318,525
110823359,517
110833404,522
110843415,520
110853458,517
110863502,515
110873515,513
110883557,506
110893599,510
110903645,508
110913664,506
110923713,505
110933761,501
110943779,506
110953825,504
110963870,500
110973882,509
110983925,507
110993969,505
111003985,502
111014031,502
111024077,508
111034088,514
111044132,513
111054177,510
111064188,512
111074234,512
111084280,505
111094294,512
111104340,512
111114384,506
111124393,508
111134435,508
111144480,503
111154526,510
111164540,501
111174581,509
111184624,505
111194638,506
111204684,506
111214730,504
111224745,510
111234786,506
111244830,512
111254844,508
111264889,506
111274933,512
111284947,512
111294993,509
111305039,510
111315054,509
111325098,509
111335141,503
111345154,511
111355194,509
111365235,505
111375246,504
111385288,512
111395331,510
111405375,506
111415390,503
111425434,505
111435479,506
111445488,506
111455532,510
111465573,510
111475584,512
111485625,513
111495671,513
111505684,514
111515727,519
111525770,524
111535784,528
111545825,526
111555868,528
111565882,530
111575925,527
111585967,521
111595978,519
111606021,519
111616063,517
111626076,513
111636119,510
111646165,507
111656210,509
111666224,508
111676269,509
111686316,503
111696329,503
111706373,499
111716418,505
111726429,507
111736471,499
111746515,504
111756528,507
111766571,501
111776613,509
111786628,507
111796669,509
111806711,510
111816725,506
111826765,505
111836806,504
111846817,505
111856862,505
111866901,506
111876909,508
111886950,510
111896992,506
111907035,503
111917045,504
111927086,505
111937126,510
111947136,503
111957177,506
111967219,504
111977231,507
111987272,504
111997317,505
112007330,506
112017375,507
112027423,503
112037441,502
112047491,507
112057540,503
112067554,503
112077601,510
112087648,503
112097664,505
112107705,502
112117746,508
112127758,507
112137804,502
112147850,506
112157896,501
112167911,504
112177954,510
112188001,506
112198015,508
112208060,511
112218103,511
112228117,513
112238164,513
112248208,517
112258221,519
112268264,524
112278309,528
112288322,528
112298372,522
112308421,528
112318439,523
112328485,525
112338534,526
112348552,524
112358599,513
112368646,518
112378662,515
112388710,513
112398759,514
112408805,508
112418819,512
112428863,507
112438912,507
112448933,508
112458982,501
112469032,502
112479050,504
112489103,505
112499156,506
112509178,509
112519231,509
112529281,502
112539303,511
112549354,508
112559405,506
112569425,504
112579475,513
112589526,509
112599544,512
112609592,507
112619638,507
112629660,504
112639716,503
112649770,512
112659828,504
112669855,501
112679913,510
112689969,510
112699994,508
112710046,500
112720096,504
112730119,505
112740173,506
112750227,504
112760250,502
112770303,508
112780355,511
112790377,509
112800431,500
112810482,503
112820505,506
112830559,507
112840609,507
112850627,505
112860674,509
112870725,507
112880744,505
112890794,501
112900844,507
112910892,511
112920910,510
112930959,511
112941007,510
112951020,514
112961061,514
112971104,521
112981117,521
112991163,524
113001212,523
113011229,528
113021277,530
113031330,529
113041351,526
113051403,521
113061455,520
113071476,517
113081528,516
113091577,516
113101594,514
113111643,511
113121689,506
113131708,504
113141760,508
113151809,501
113161854,504
113171869,500
113181916,503
113191962,505
113201979,503
113212028,504
113222077,503
113232095,505
113242143,508
113252192,502
113262211,510
113272259,505
113282307,507
113292322,510
113302367,502
113312414,508
113322427,511
113332474,509
113342521,510
113352540,509
113362587,506
113372635,506
113382651,503
113392701,506
113402752,504
113412803,501
113422822,502
113432874,509
113442922,504
113452941,507
113462991,508
113473040,506
113483061,505
113493109,508
113503159,508
113513177,506
113523226,503
113533275,508
113543294,507
113553344,506
113563395,504
113573415,509
113583466,506
113593515,510
113603537,508
113613586,508
113623637,511
113633659,509
113643713,512
113653765,512
113663816,509
113673834,516
113683881,513
113693931,514
113703950,517
113714001,527
113724050,530
113734068,527
113744117,525
113754164,523
113764184,521
113774231,522
113784281,521
113794300,517
113804344,517
113814394,518
113824411,509
113834458,511
113844501,508
113854514,508
113864560,508
113874606,505
113884622,505
113894668,508
113904716,504
113914765,506
113924781,503
113934826,504
113944873,505
113954889,506
113964938,507
113974987,502
113985002,500
113995045,500
114005090,500
114015105,502
114025144,504
114035185,502
114045198,506
114055242,508
114065285,510
114075297,505
114085336,507
114095378,506
114105392,501
114115435,505
114125476,504
114135489,502
114145533,509
114155578,506
114165622,501
114175634,498
114185679,509
114195726,509
114205741,506
114215791,508
114225840,507
114235856,507
114245903,503
114255948,507
114265963,501
114276008,506
114286053,501
114296069,510
114306116,504
114316164,509
114326183,508
114336230,501
114346279,503
114356296,509
114366343,508
114376391,506
114386411,503
114396463,502
114406513,504
114416559,509
114426577,505
114436627,515
114446676,514
114456696,522
114466742,516
114476788,524
114486803,527
114496851,525
114506899,523
114516916,525
114526962,527
114537006,521
114547024,519
114557073,516
114567121,517
114577140,508
114587188,514
114597237,510
114607255,503
114617306,503
114627359,508
114637381,506
114647431,506
114657476,505
114667526,505
114677545,508
114687596,505
114697647,502
114707667,507
114717717,503
114727767,502
114737786,508
114747836,511
114757886,512
114767906,507
114777956,504
114788006,510
114798023,508
114808066,507
114818112,508
114828134,511
114838185,507
114848237,507
114858255,505
114868304,510
114878357,510
114888380,511
114898434,506
114908487,508
114918542,510
114928565,502
114938618,501
114948673,502
114958696,504
114968746,502
114978797,502
114988816,503
114998867,508
115008919,500
115018939,506
115028990,506
115039042,511
115049063,509
115059114,501
115069165,509
115079188,502
115089240,509
115099288,508
115109305,505
115119354,507
115129405,511
115139427,509
115149478,510
115159525,508
115169575,503
115179589,507
115189633,505
115199676,513
115209690,511
115219736,513
115229781,523
115239797,524
115249842,528
115259889,519
115269906,520
115279955,526
115290003,524
115300018,520
115310067,523
115320117,520
115330136,517
115340185,510
115350234,527
115360254,512
115370303,509
115380352,510
115390369,507
115400419,508
115410473,508
115420525,507
115430543,504
115440592,506
115450641,505
115460660,506
115470710,506
115480760,505
115490778,501
115500830,506
115510880,501
115520899,506
115530948,509
115540998,503
115551016,508
115561064,509
115571115,507
115581136,511
115591188,502
115601241,508
115611268,509
115621321,509
115631376,509
115641397,509
115651448,507
115661502,502
115671552,510
115681573,507
115691623,501
115701671,510
115711691,499
115721744,504
115731803,510
115741832,511
115751890,502
115761940,505
115771954,508
115782002,510
115792052,505
115802069,510
115812118,511
115822166,506
115832182,510
115842230,511
115852278,503
115862294,509
115872340,509
115882389,502
115892405,507
115902453,502
115912502,504
115922551,502
115932571,507
115942617,509
115952666,507
115962681,508
115972730,505
115982776,509
115992794,508
116002844,503
116012895,508
116022916,507
116032966,512
116043015,522
116053034,522
116063083,523
116073134,524
116083153,526
116093202,527
116103250,524
116113269,520
116123317,522
116133364,521
116143382,518
116153432,517
116163482,516
116173533,515
116183554,514
116193603,509
116203650,505
116213667,506
116223717,501
116233761,503
116243776,507
116253824,508
116263869,503
116273886,505
116283932,502
116293977,508
116303995,511
116314043,507
116324087,506
116334104,511
116344151,505
116354199,510
116364216,509
116374265,512
116384315,508
116394344,504
116404402,510
116414459,516
116424515,508
116434541,503
116444598,504
116454655,509
116464681,503
116474738,507
116484794,506
116494821,504
116504874,507
116514928,509
116524952,503
116535008,507
116545065,511
116555092,500
116565148,509
116575205,502
116585232,509
116595288,508
116605345,507
116615371,503
116625425,502
116635479,505
116645503,505
116655552,507
116665602,505
116675645,500
116685660,508
116695711,510
116705760,505
116715777,500
116725828,507
116735879,504
116745899,507
116755948,507
116766000,510
116776024,506
116786076,503
116796128,508
116806149,509
116816200,503
116826254,515
116836281,519
116846341,511
116856399,523
116866425,518
116876482,520
116886543,526
116896574,528
116906633,524
116916684,525
116926734,525
116936753,519
116946803,525
116956855,512
116966872,519
116976919,516
116986967,514
116996985,511
117007031,506
117017077,511
117027097,511
117037147,509
117047199,508
117057222,503
117067274,501
117077325,506
117087345,508
117097394,506
117107444,503
117117463,500
117127514,506
117137566,502
117147587,501
117157637,502
117167685,510
117177729,510
117187742,508
117197790,503
117207842,503
117217864,512
117227912,507
117237961,508
117247978,501
117258023,503
117268070,500
117278089,508
117288139,508
117298191,505
117308211,502
117318261,504
117328310,504
117338329,506
117348376,503
117358426,506
117368444,507
117378493,505
117388542,508
117398563,500
117408614,510
117418665,501
117428714,508
117438732,509
117448781,507
117458831,509
117468848,510
117478893,502
117488940,509
117498957,508
117509006,505
117519057,503
117529088,507
117539149,507
117549207,510
117559237,508
117569295,509
117579350,510
117589369,509
117599425,512
117609482,512
117619503,510
117629555,505
117639607,508
117649628,512
117659680,512
117669733,513
117679781,518
117689795,527
117699841,528
117709892,521
117719912,526
117729962,531
117740012,523
117750029,518
117760076,528
117770121,524
117780139,516
117790185,515
117800232,514
117810247,508
117820295,513
117830343,507
117840361,510
117850413,509
117860461,505
117870478,508
117880526,500
117890573,500
117900586,505
117910633,508
117920681,499
117930730,505
117940750,503
117950800,507
117960852,500
117970873,511
117980922,506
117990973,511
118000992,505
118011042,513
118021093,504
118031116,505
118041168,505
118051221,503
118061239,504
118071284,509
118081327,508
118091337,501
118101381,500
118111428,510
118121445,509
118131491,503
118141537,505
118151555,505
118161601,509
118171651,507
118181701,504
118191721,508
118201771,508
118211822,506
118221840,506
118231889,510
118241938,504
118251957,509
118262003,501
118272050,507
118282067,500
118292121,507
118302174,504
118312197,510
118322248,509
118332300,509
118342319,509
118352364,505
118362406,504
118372419,504
118382469,510
118392518,505
118402535,505
118412584,509
118422633,510
118432680,502
118442697,507
118452745,503
118462790,505
118472804,503
118482849,506
118492898,513
118502912,519
118512961,513
118523011,521
118533027,521
118543075,526
118553123,531
118563140,528
118573187,523
118583236,526
118593255,527
118603305,527
118613355,517
118623372,515
118633421,518
118643468,514
118653488,505
118663538,509
118673586,504
118683636,506
118693653,503
118703701,507
118713751,505
118723770,505
118733821,507
118743872,501
118753893,504
118763945,499
118773992,508
118784005,501
118794056,504
118804105,503
118814124,507
118824175,504
118834225,506
118844242,508
118854291,505
118864344,507
118874366,507
118884416,509
118894467,506
118904487,506
118914545,510
118924599,509
118934649,509
118944670,510
118954723,505
118964775,503
118974797,509
118984848,501
118994898,508
119004915,510
119014967,507
119025017,505
119035035,509
119045080,504
119055125,508
119065141,507
119075187,510
119085237,504
119095256,504
119105304,508
119115354,502
119125373,507
119135421,505
119145467,506
119155485,509
119165530,511
119175577,505
119185622,510
119195640,508
119205685,509
119215727,510
119225741,503
119235781,504
119245827,504
119255847,502
119265896,508
119275946,508
119285967,505
119296017,503
119306065,508
119316085,510
119326139,505
119336191,504
119346215,514
119356270,516
119366324,517
119376346,520
119386398,516
119396450,525
119406472,523
119416527,527
119426582,527
119436632,526
119446648,520
119456694,518
119466741,517
119476757,515
119486802,516
119496851,516
119506872,514
119516917,513
119526965,508
119536984,508
119547036,499
119557089,504
119567108,501
119577158,507
119587208,503
119597227,503
119607280,507
119617332,508
119627353,509
119637405,510
119647459,505
119657480,506
119667530,507
119677583,504
119687634,503
119697651,509
119707701,506
119717748,513
119727764,508
119737814,507
119747863,503
119757880,505
119767928,511
119777976,503
119787993,505
119798037,510
119808082,502
119818096,502
119828139,506
119838185,508
119848204,504
119858254,502
119868302,508
119878320,508
119888369,504
119898419,501
119908439,506
119918488,507
119928537,508
119938589,508
119948607,507
119958656,504
119968704,505
119978724,503
119988774,509
119998826,507
120008846,510
120018894,509
120028941,508
120038958,504
120049005,502
120059049,506
120069067,507
120079118,507
120089169,503
120099189,502
120109241,506
120119293,506
120129318,509
120139374,504
120149431,513
120159454,515
120169505,518
120179554,521
120189603,525
120199626,525
120209679,524
120219728,527
120229749,517
120239804,525
120249856,524
120259879,514
120269930,516
120279983,518
120290005,516
120300057,508
120310110,513
120320134,512
120330189,511
120340244,501
120350267,499
120360320,499
120370372,498
120380392,501
120390443,499
120400494,505
120410517,506
120420569,506
120430624,508
120440679,505
120450703,508
120460757,509
120470810,509
120480831,512
120490882,504
120500931,510
120510953,507
120521007,512
120531063,507
120541081,511
120551131,507
120561185,508
120571208,509
120581261,505
120591316,510
120601339,505
120611390,504
120621439,507
120631459,502
120641513,508
120651564,501
120661582,507
120671630,504
120681682,504
120691735,509
120701757,505
120711806,512
120721859,506
120731879,507
120741932,510
120751985,510
120762008,502
120772061,508
120782113,503
120792133,502
120802184,502
120812235,510
120822257,507
120832306,506
120842357,502
120852377,504
120862430,508
120872478,510
120882493,506
120892539,502
120902588,504
120912608,508
120922659,510
120932710,510
120942758,513
120952777,512
120962828,511
120972878,523
120982893,519
120992941,528
121002989,528
121013008,528
121023056,530
121033105,529
121043123,528
121053172,527
121063216,516
121073232,514
121083280,512
121093329,515
121103344,514
121113391,510
121123438,506
121133453,510
121143499,512
121153545,503
121163564,501
121173614,503
121183659,505
121193704,505
121203717,507
121213763,507
121223810,505
121233820,508
121243862,507
121253902,507
121263915,505
121273961,509
121284006,508
121294020,509
121304068,508
121314117,512
121324134,511
121334178,502
121344224,509
121354241,511
121364291,504
121374341,502
121384361,502
121394410,503
121404460,505
121414481,508
121424535,506
121434588,509
121444641,506
121454664,507
121464717,503
121474769,510
121484792,505
121494846,510
121504895,508
121514915,508
121524967,511
121535018,504
121545038,500
121555090,508
121565142,500
121575164,506
121585219,508
121595274,506
121605293,506
121615347,504
121625399,506
121635423,501
121645473,507
121655527,505
121665553,499
121675609,506
121685664,501
121695715,508
121705737,505
121715788,509
121725842,510
121735865,510
121745918,508
121755969,518
121765990,517
121776044,519
121786097,523
121796120,525
121806174,521
121816228,530
121826246,525
121836297,530
121846351,527
121856375,527
121866428,523
121876482,517
121886505,517
121896558,515
121906609,517
121916631,512
121926686,506
121936740,509
121946794,509
121956817,505
121966865,505
121976919,507
121986943,504
121996996,505
122007051,504
122017074,506
122027129,506
122037186,506
122047213,504
122057268,508
122067322,510
122077346,509
122087395,505
122097450,508
122107473,510
122117528,510
122127582,504
122137609,507
122147667,506
122157726,505
122167751,509
122177805,504
122187854,504
122197905,504
122207925,509
122217976,505
122228026,508
122238050,501
122248108,503
122258166,507
122268194,505
122278253,509
122288311,508
122298340,508
122308399,503
122318451,504
122328472,505
122338524,508
122348569,505
122358584,504
122368635,509
122378683,507
122388700,508
122398751,504
122408803,502
122418825,510
122428873,507
122438923,503
122448976,505
122458997,503
122469046,505
122479097,503
122489120,505
122499175,506
122509228,509
122519249,508
122529296,502
122539346,507
122549366,504
122559416,506
122569466,508
122579485,513
122589536,508
122599587,520
122609603,514
122619649,523
122629695,529
122639711,526
122649757,526
122659805,527
122669824,529
122679874,525
122689919,522
122699967,516
122709989,518
122720036,511
122730086,511
122740112,514
122750170,510
122760227,509
122770254,509
122780309,506
122790363,506
122800386,505
122810440,507
122820493,507
122830518,505
122840570,499
122850624,507
122860645,499
122870692,505
122880739,502
122890759,499
122900809,505
122910857,505
122920876,502
122930923,503
122940968,508
122951014,509
122961034,504
122971082,508
122981123,513
122991136,507
123001181,507
123011228,510
123021247,508
123031299,503
123041349,506
123051365,505
123061411,504
123071458,508
123081477,509
123091530,506
123101582,506
123111599,508
123121645,504
123131695,506
123141710,502
123151755,502
123161799,506
123171816,506
123181866,507
123191913,508
123201960,505
123211976,506
123222021,505
123232066,509
123242082,503
123252128,501
123262179,504
123272196,506
123282246,508
123292293,508
123302310,510
123312358,502
123322406,505
123332425,508
123342476,509
123352525,510
123362543,504
123372592,508
123382639,506
123392654,504
123402701,511
123412746,516
123422762,522
123432810,515
123442855,525
123452903,522
123462919,523
123472966,524
123483013,525
123493034,524
123503084,524
123513132,520
123523148,516
123533197,518
123543248,516
123553264,512
123563310,509
123573358,504
123583377,506
123593426,503
123603475,506
123613487,503
123623536,498
123633585,503
123643599,500
123653645,498
123663693,508
123673714,504
123683769,503
123693825,507
123703880,509
123713901,508
123723951,508
123734003,510
123744023,507
123754072,505
123764121,505
123774137,512
123784188,511
123794241,507
123804264,509
123814316,508
123824367,506
123834384,508
123844435,504
123854487,506
123864509,508
123874563,501
123884615,500
123894640,505
123904692,508
123914745,507
123924765,504
123934816,505
123944867,506
123954917,503
123964939,507
123974985,507
123985034,503
123995057,508
124005109,510
124015164,508
124025189,508
124035243,501
124045296,507
124055318,501
124065371,502
124075425,509
124085445,508
124095499,507
124105553,508
124115576,503
124125627,506
124135681,509
124145703,509
124155759,506
124165812,511
124175839,507
124185898,504
124195953,512
124206010,515
124216037,511
124226092,520
124236149,525
124246173,524
124256225,524
124266281,526
124276299,523
124286350,528
124296401,529
124306420,525
124316469,520
124326520,517
124336537,513
124346585,517
124356638,517
124366659,511
124376710,512
124386760,510
124396781,510
124406835,510
124416888,503
124426911,505
124436965,498
124447018,506
124457071,507
124467092,503
124477143,508
124487198,503
124497221,506
124507272,501
124517327,511
124527347,511
124537397,508
124547448,511
124557465,510
124567514,509
124577567,512
124587587,507
124597636,507
124607684,509
124617701,505
124627746,509
124637792,510
124647810,504
124657863,505
124667915,507
124677941,500
124687998,506
124698049,509
124708098,504
124718116,510
124728169,503
124738220,506
124748238,509
124758287,506
124768337,511
124778358,503
124788407,508
124798457,511
124808476,509
124818524,508
124828571,503
124838590,508
124848636,508
124858685,510
124868708,508
124878758,507
124888811,508
124898832,499
124908885,511
124918937,505
124928959,508
124939012,510
124949062,508
124959109,504
124969128,512
124979180,512
124989231,511
124999251,522
125009302,523
125019356,520
125029380,530
125039433,531
125049487,527
125059509,529
125069563,520
125079615,525
125089635,524
125099688,521
125109738,518
125119759,515
125129806,515
125139856,511
125149872,510
125159923,512
125169970,505
125179988,511
125190038,498
125200088,511
125210137,508
125220154,504
125230204,506
125240255,500
125250271,507
125260319,507
125270365,508
125280381,504
125290432,510
125300482,505
125310501,511
125320550,512
125330597,509
125340615,509
125350666,507
125360714,505
125370727,508
125380774,502
125390824,502
125400844,508
125410892,503
125420941,502
125430959,506
125441009,508
125451056,506
125461108,507
125471125,506
125481167,506
125491213,505
125501229,509
125511274,509
125521319,506
125531331,507
125541374,504
125551422,507
125561438,508
125571478,508
125581522,508
125591538,509
125601584,508
125611629,503
125621645,511
125631690,510
125641734,508
125651749,502
125661794,510
125671836,510
125681849,505
125691892,519
125701933,509
125711976,510
125721990,502
125732034,503
125742082,506
125752099,511
125762148,513
125772194,508
125782208,514
125792251,521
125802297,522
125812315,519
125822362,528
125832412,524
125842433,527
125852482,526
125862527,528
125872544,524
125882591,520
125892636,519
125902654,516
125912703,518
125922749,516
125932763,512
125942808,510
125952856,504
125962900,511
125972912,510
125982958,510
125993007,507
126003025,506
126013074,506
126023121,509
126033140,501
126043189,509
126053237,506
126063254,508
126073300,501
126083348,511
126093365,511
126103416,503
126113466,510
126123484,512
126133535,507
126143585,508
126153604,504
126163651,509
126173698,508
126183712,506
126193757,509
126203803,505
126213847,505
126223859,504
126233904,501
126243950,506
126253967,510
126264014,505
126274062,500
126284080,501
126294128,508
126304174,504
126314189,505
126324235,506
126334282,506
126344297,507
126354341,510
126364382,499
126374392,507
126384433,504
126394478,506
126404493,508
126414540,509
126424590,507
126434609,507
126444659,505
126454710,507
126464761,505
126474780,506
126484830,504
126494882,509
126504900,502
126514949,504
126524997,503
126535015,508
126545065,503
126555113,508
126565125,511
126575169,514
126585209,517
126595222,523
126605266,521
126615313,524
126625329,526
126635376,528
126645423,530
126655439,526
126665484,528
126675526,524
126685538,524
126695585,513
126705628,516
126715672,513
126725687,509
126735731,512
126745776,509
126755789,513
126765832,510
126775878,507
126785896,507
126795943,511
126805988,504
126816004,503
126826049,503
126836095,505
126846108,507
126856152,507
126866197,510
126876216,508
126886265,508
126896312,508
126906331,510
126916381,510
126926429,510
126936447,509
126946494,509
126956536,504
126966579,502
126976595,510
126986643,508
126996691,501
127006708,505
127016757,512
127026803,504
127036818,509
127046865,501
127056909,506
127066919,507
127076963,508
127087007,504
127097021,509
127107064,510
127117112,508
127127123,503
127137168,502
127147214,506
127157231,506
127167277,510
127177324,509
127187338,505
127197381,508
127207427,503
127217472,511
127227489,503
127237534,505
127247577,505
127257592,507
127267638,509
127277685,507
127287698,503
127297742,507
127307785,505
127317799,504
127327843,509
127337888,503
127347902,507
127357943,510
127367983,504
127377996,505
127388039,512
127398085,517
127408099,513
127418147,522
127428194,519
127438214,524
127448263,526
127458309,519
127468357,528
127478376,523
127488422,520
127498472,521
127508490,514
127518541,516
127528586,509
127538605,507
127548651,512
127558701,504
127568715,510
127578762,507
127588806,503
127598819,504
127608858,502
127618896,505
127628909,506
127638953,499
127648997,504
127659011,501
127669056,507
127679105,509
127689121,503
127699166,503
127709211,511
127719258,509
127729271,506
127739313,508
127749359,506
127759376,508
127769423,503
127779474,506
127789496,509
127799546,510
127809596,507
127819616,502
127829668,508
127839719,507
127849738,505
127859787,507
127869836,505
127879855,509
127889905,505
127899955,502
127909969,507
127920009,503
127930049,502
127940060,507
127950107,504
127960154,507
127970202,510
127980221,509
127990268,508
128000313,509
128010329,504
128020376,506
128030422,510
128040436,511
128050482,504
128060528,502
128070544,507
128080592,508
128090637,508
128100654,509
128110700,505
128120747,510
128130765,511
128140811,509
128150856,505
128160871,509
128170917,509
128180962,502
128190976,509
128201021,514
128211070,514
128221116,514
128231132,513
128241176,522
128251222,523
128261237,526
128271283,527
128281327,529
128291344,532
128301392,530
128311440,529
128321457,528
128331506,522
128341555,519
128351574,511
128361624,512
128371674,514
128381691,507
128391740,509
128401788,510
128411803,508
128421845,510
128431889,506
128441902,502
128451951,503
128462001,506
128472049,499
128482069,502
128492114,504
128502161,501
128512182,509
128522232,509
128532283,506
128542303,506
128552351,505
128562402,507
128572422,509
128582472,509
128592519,509
128602537,512
128612587,508
128622632,509
128632646,511
128642690,504
128652735,501
128662753,506
128672801,501
128682847,506
128692865,502
128702911,508
128712955,505
128723001,506
128733016,506
128743062,506
128753108,507
128763123,509
128773171,505
128783221,507
128793238,505
128803284,506
128813331,499
128823348,509
128833392,502
128843435,508
128853451,509
128863499,502
128873546,507
128883565,500
128893613,503
128903661,508
128913677,504
128923725,506
128933772,508
128943795,509
128953851,500
128963905,501
128973957,507
128983976,503
128994027,503
129004078,507
129014097,509
129024142,502
129034192,511
129044215,510
129054267,510
129064318,514
129074339,518
129084388,521
129094440,520
129104458,528
129114506,526
129124554,529
129134573,521
129144622,525
129154672,527
129164692,523
129174743,517
129184794,517
129194809,514
129204857,512
129214902,508
129224947,505
129234964,509
129245014,507
129255062,503
129265077,503
129275122,508
129285168,506
129295188,500
129305240,506
129315290,499
129325304,508
129335349,506
129345391,503
129355409,508
129365458,503
129375507,502
129385526,508
129395576,505
129405624,508
129415639,505
129425689,505
129435744,509
129445769,507
129455824,503
129465877,508
129475931,509
129485956,504
129496002,506
129506048,510
129516062,509
129526105,507
129536150,503
129546172,502
129556224,507
129566274,509
129576291,508
129586338,503
129596386,508
129606404,506
129616449,501
129626497,505
129636514,502
129646559,510
129656603,503
129666619,506
129676663,504
129686706,510
129696721,501
129706764,508
129716807,508
129726855,508
129736870,505
129746916,507
129756965,508
129766979,507
129777025,509
129787070,506
129797084,505
129807129,509
129817176,502
129827193,509
129837245,507
129847295,507
129857313,512
129867361,513
129877407,515
129887425,517
129897476,517
129907526,523
129917545,524
129927594,527
129937643,530
129947662,528
129957712,524
129967761,528
129977807,521
129987823,521
129997871,519
130007918,519
130017939,518
130027990,513
130038042,509
130048061,510
130058110,504
130068159,508
130078175,504
130088223,509
130098271,507
130108288,505
130118334,506
130128380,506
130138395,499
130148442,503
130158490,499
130168508,506
130178554,501
130188601,507
130198616,506
130208659,511
130218705,504
130228753,509
130238768,506
130248813,510
130258862,509
130268882,510
130278929,504
130288978,510
130298993,506
130309039,500
130319085,506
130329101,500
130339144,508
130349187,500
130359201,500
130369247,501
130379293,506
130389309,502
130399354,503
130409399,501
130419414,510
130429463,506
130439514,504
130449533,511
130459583,509
130469632,509
130479684,510
130489712,510
130499771,511
130509830,507
130519857,505
130529914,505
130539970,507
130549994,504
130560050,504
130570107,503
130580132,508
130590185,508
130600239,507
130610261,507
130620309,509
130630357,504
130640374,501
130650421,501
130660470,507
130670487,506
130680533,510
130690581,505
130700595,509
130710637,510
130720680,519
130730725,526
130740740,526
130750786,530
130760830,526
130770841,532
130780883,527
130790927,524
130800942,526
130810987,522
130821031,522
130831041,513
130841085,518
130851128,510
130861140,514
130871183,511
130881227,509
130891237,506
130901279,507
130911320,505
130921333,507
130931374,505
130941417,502
130951430,504
130961472,505
130971513,503
130981556,508
130991569,506
131001612,508
131011655,510
131021668,509
131031716,508
131041763,510
131051782,508
131061828,506
131071875,513
131081891,508
131091937,502
131101981,511
131111997,510
131122051,506
131132100,508
131142117,508
131152163,501
131162208,506
131172224,504
131182272,507
131192319,507
131202333,507
131212378,507
131222424,503
131232471,508
131242482,504
131252526,506
131262571,502
131272586,505
131282632,509
131292678,509
131302694,506
131312739,504
131322782,512
131332794,508
131342837,508
131352880,510
131362893,508
131372937,508
131382978,510
131392988,504
131403031,508
131413077,509
131423091,504
131433136,507
131443181,505
131453199,508
131463249,511
131473296,507
131483344,507
131493357,508
131503398,506
131513442,505
131523457,510
131533505,509
131543553,515
131553569,516
131563613,520
131573659,520
131583673,519
131593716,529
131603762,531
131613775,529
131623820,531
131633867,526
131643886,527
131653936,523
131663983,523
131674000,520
131684048,520
131694097,515
131704111,516
131714155,511
131724201,512
131734247,510
131744261,502
131754306,504
131764349,508
131774362,500
131784407,508
131794454,501
131804466,507
131814509,505
131824555,505
131834571,507
131844611,508
131854652,505
131864672,508
131874720,505
131884771,509
131894791,514
131904840,510
131914887,510
131924907,505
131934956,503
131945003,506
131955021,510
131965069,511
131975117,510
131985164,505
131995180,508
132005228,509
132015276,506
132025290,506
132035335,508
132045378,500
132055392,504
132065436,509
132075483,508
132085499,505
132095547,508
132105591,510
132115609,506
132125658,506
132135704,507
132145717,509
132155763,504
132165808,505
132175820,507
132185859,501
132195906,505
132205922,506
132215969,505
132226020,509
132236069,505
132246088,509
132256136,508
132266180,503
132276196,503
132286244,507
132296293,506
132306311,507
132316358,507
132326405,505
132336419,500
132346464,505
132356507,501
132366521,505
132376565,501
132386611,502
132396624,508
132406669,509
132416714,512
132426729,512
132436773,518
132446815,519
132456826,520
132466868,528
132476909,525
132486946,531
132496951,525
132506991,524
132517038,528
132527054,525
132537100,521
132547145,516
132557158,520
132567203,510
132577247,516
132587260,514
132597307,512
132607354,507
132617370,508
132627413,506
132637461,508
132647478,508
132657525,503
132667572,507
132677587,503
132687632,501
132697681,508
132707698,503
132717744,507
132727791,510
132737838,509
132747850,506
132757899,512
132767948,508
132777964,509
132788011,511
132798057,502
132808074,502
132818122,503
132828172,501
132838188,500
132848234,501
132858282,504
132868301,506
132878348,508
132888393,503
132898406,509
132908453,505
132918499,506
132928511,506
132938550,502
132948596,510
132958613,507
132968661,505
132978710,505
132988756,509
132998771,505
133008816,510
133018864,509
133028880,505
133038926,506
133048966,510
133058980,506
133069025,505
133079068,507
133089082,505
133099126,508
133109172,510
133119187,510
133129232,508
133139276,503
133149292,507
133159339,507
133169385,509
133179401,509
133189447,506
133199492,509
133209506,506
133219550,507
133229593,509
133239634,500
133249645,509
133259686,509
133269729,503
133279741,514
133289785,511
133299829,514
133309846,516
133319893,523
133329942,526
133339957,527
133350002,522
133360046,527
133370059,523
133380105,526
133390149,521
133400168,520
133410214,514
133420261,512
133430276,512
133440322,513
133450370,503
133460387,509
133470436,507
133480481,507
133490524,499
133500536,499
133510585,505
133520633,502
133530652,502
133540701,498
133550750,502
133560767,506
133570816,507
133580867,505
133590884,507
133600932,507
133610981,510
133620996,510
133631041,510
133641087,510
133651101,504
133661145,505
133671191,501
133681204,504
133691249,504
133701295,504
133711311,510
133721358,506
133731404,505
133741450,502
133751465,503
133761509,509
133771554,504
133781567,508
133791611,502
133801655,502
133811667,501
133821708,507
133831750,506
133841762,504
133851808,506
133861851,501
133871865,506
133881909,507
133891955,507
133901970,507
133912018,508
133922068,508
133932086,509
133942136,507
133952184,508
133962202,506
133972253,506
133982301,503
133992348,505
134002365,510
134012413,508
134022461,505
134032478,503
134042524,507
134052573,504
134062590,507
134072642,509
134082694,510
134092713,502
134102764,506
134112814,508
134122831,508
134132879,510
134142928,506
134152944,512
134162992,510
134173040,519
134183053,518
134193098,525
134203146,523
134213163,527
134223212,523
134233266,525
134243319,524
134253338,523
134263385,523
134273429,515
134283443,516
134293493,513
134303541,511
134313560,510
134323609,504
134333656,502
134343673,505
134353717,504
134363762,503
134373774,508
134383821,504
134393867,500
134403879,508
134413927,500
134423976,506
134433994,509
134444046,509
134454094,510
134464111,507
134474158,513
134484205,512
134494251,512
134504270,511
134514319,508
134524367,508
134534384,510
134544434,509
134554485,510
134564503,510
134574554,510
134584604,507
134594622,508
134604668,507
134614714,506
134624728,507
134634779,510
134644828,506
134654845,510
134664892,508
134674936,507
134684954,502
134695001,509
134705049,507
134715068,511
134725116,508
134735163,510
134745212,512
134755231,506
134765281,508
134775331,508
134785350,508
134795398,511
134805446,505
134815465,501
134825515,510
134835562,506
134845576,505
134855623,502
134865671,509
134875687,509
134885735,511
134895784,508
134905803,511
134915850,512
134925900,516
134935920,515
134945971,521
134956020,521
134966037,522
134976087,524
134986133,527
134996178,522
135006196,523
135016242,520
135026288,519
135036304,517
135046352,520
135056398,516
135066414,513
135076459,514
135086503,505
135096521,510
135106567,511
135116609,512
135126621,507
135136665,507
135146713,504
135156730,504
135166780,505
135176826,508
135186844,508
135196895,502
135206943,505
135216960,510
135227009,511
135237061,510
135247109,507
135257126,507
135267174,512
135277223,508
135287240,507
135297288,503
135307336,506
135317349,510
135327396,509
135337444,508
135347462,505
135357511,505
135367557,501
135377576,507
135387623,508
135397669,508
135407684,508
135417730,503
135427774,503
135437791,508
135447841,509
135457889,508
135467905,510
135477951,508
135488001,501
135498049,508
135508065,510
135518113,505
135528157,510
135538170,507
135548215,509
135558262,507
135568279,509
135578329,505
135588380,509
135598399,506
135608449,502
135618499,505
135628518,508
135638568,509
135648617,507
135658636,515
135668685,507
135678733,518
135688751,517
135698797,522
135708844,529
135718860,530
135728910,527
135738960,537
135749008,525
135759028,524
135769078,527
135779130,525
135789155,519
135799208,521
135809260,514
135819281,512
135829333,514
135839383,516
135849402,512
135859451,510
135869500,513
135879518,511
135889570,505
135899623,509
135909645,502
135919696,506
135929748,499
135939767,507
135949818,508
135959869,508
135969889,501
135979936,503
135989985,503
136000034,508
136010054,511
136020104,513
136030151,512
136040170,512
136050216,511
136060262,511
136070277,511
136080322,504
136090366,506
136100381,510
136110424,505
136120469,504
136130485,501
136140530,507
136150572,503
136160583,507
136170625,506
136180668,503
136190680,506
136200724,507
136210767,504
136220779,509
136230821,510
136240862,508
136250906,506
136260918,501
136270961,502
136281004,500
136291016,505
136301057,509
136311099,508
136321111,503
136331154,508
136341196,509
136351208,507
136361248,509
136371290,506
136381301,509
136391340,509
136401377,509
136411382,510
136421422,514
136431464,516
136441473,519
136451511,524
136461551,526
136471563,524
136481603,525
136491645,531
136501684,528
136511691,526
136521731,529
136531773,525
136541785,519
136551828,518
136561871,511
136571884,512
136581924,514
136591966,508
136601975,506
136612014,510
136622054,501
136632063,508
136642100,504
136652137,505
136662141,509
136672177,508
136682210,503
136692216,502
136702255,506
136712296,508
136722306,506
136732345,509
136742382,508
136752417,510
136762425,509
136772465,504
136782506,504
136792515,512
136802556,510
136812596,509
136822606,512
136832649,511
136842693,509
136852705,512
136862750,510
136872790,510
136882802,505
136892845,503
136902887,505
136912900,511
136922945,500
136932993,509
136943008,505
136953053,511
136963095,508
136973106,502
136983146,506
136993189,507
137003232,507
137013242,507
137023283,510
137033323,506
137043335,507
137053376,508
137063418,505
137073429,508
137083473,508
137093518,501
137103533,501
137113579,502
137123621,503
137133635,500
137143679,504
137153724,502
137163736,502
137173783,506
137183830,506
137193846,508
137203894,511
137213939,505
137223953,505
137233995,507
137244039,517
137254077,519
137264083,521
137274122,526
137284161,519
137294172,529
137304216,523
137314259,528
137324271,527
137334311,523
137344356,515
137354368,519
137364410,516
137374452,513
137384463,506
137394507,509
137404553,509
137414566,507
137424613,509
137434659,509
137444673,500
137454716,501
137464763,502
137474781,506
137484829,504
137494875,507
137504917,506
137514928,500
137524974,507
137535020,501
137545035,505
137555083,512
137565131,511
137575146,510
137585194,508
137595238,508
137605252,508
137615298,505
137625344,503
137635357,511
137645405,507
137655453,502
137665465,504
137675507,508
137685553,506
137695566,499
137705613,504
137715660,508
137725676,506
137735724,508
137745775,508
137755827,507
137765844,507
137775893,508
137785944,518
137795966,501
137806016,507
137816063,503
137826079,503
137836127,501
137846172,508
137856188,499
137866234,504
137876281,508
137886300,506
137896347,500
137906391,504
137916406,502
137926454,503
137936501,505
137946518,505
137956563,507
137966610,503
137976626,510
137986668,508
137996714,509
138006761,505
138016773,504
138026816,509
138036861,510
138046875,510
138056922,509
138066966,511
138076980,514
138087026,520
138097070,517
138107085,519
138117131,524
138127177,528
138137191,519
138147236,521
138157281,526
138167291,520
138177329,515
138187371,515
138197384,513
138207429,506
138217474,509
138227489,506
138237535,506
138247578,506
138257621,503
138267632,506
138277675,504
138287717,506
138297730,498
138307774,499
138317820,500
138327834,503
138337879,505
138347927,505
138357941,507
138367983,500
138378026,512
138388039,506
138398082,507
138408126,510
138418135,506
138428181,503
138438228,507
138448243,510
138458285,512
138468329,506
138478345,508
138488391,508
138498440,506
138508486,507
138518507,507
138528559,504
138538606,508
138548628,502
138558683,506
138568737,499
138578762,508
138588817,501
138598870,507
138608895,507
138618945,507
138628994,507
138639012,505
138649055,508
138659099,505
138669114,507
138679158,502
138689204,510
138699218,505
138709264,506
138719308,512
138729322,510
138739369,507
138749412,503
138759456,511
138769469,508
138779516,506
138789563,506
138799575,503
138809621,501
138819667,508
138829684,508
138839730,507
138849778,513
138859793,510
138869841,514
138879888,512
138889904,520
138899949,524
138909992,521
138920009,525
138930054,522
138940102,525
138950121,525
138960168,521
138970215,521
138980230,515
138990278,513
139000322,509
139010369,512
139020385,507
139030435,510
139040484,511
139050502,507
139060550,508
139070600,507
139080619,499
139090667,507
139100716,500
139110733,502
139120780,508
139130826,503
139140843,508
139150896,509
139160947,510
139170967,503
139181019,510
139191072,504
139201093,505
139211140,511
139221190,510
139231209,507
139241259,507
139251307,507
139261356,505
139271375,506
139281424,505
139291473,505
139301490,500
139311538,503
139321588,505
139331607,509
139341656,503
139351698,502
139361713,508
139371754,503
139381799,505
139391815,507
139401862,510
139411909,510
139421925,503
139431972,506
139442021,507
139452036,503
139462082,507
139472125,505
139482137,505
139492182,510
139502226,508
139512270,503
139522282,504
139532324,509
139542369,510
139552383,508
139562419,508
139572458,510
139582474,510
139592518,509
139602563,511
139612576,514
139622619,510
139632661,517
139642675,521
139652718,519
139662764,525
139672781,520
139682826,528
139692872,528
139702887,527
139712930,521
139722978,525
139732998,516
139743045,519
139753090,511
139763137,516
139773154,507
139783200,513
139793250,507
139803270,511
139813317,508
139823365,502
139833383,509
139843428,509
139853475,500
139863490,506
139873533,508
139883576,500
139893591,503
139903635,508
139913678,510
139923694,508
139933741,511
139943787,510
139953803,510
139963852,510
139973899,510
139983919,510
139993972,512
140004020,512
140014068,509
140024084,508
140034131,508
140044181,510
140054197,508
140064243,503
140074293,507
140084312,507
140094363,506
140104414,503
140114433,506
140124480,510
140134529,508
140144552,502
140154602,509
140164648,503
140174664,507
140184714,500
140194767,509
140204787,507
140214837,503
140224884,511
140234903,509
140244952,504
140255001,502
140265048,510
140275069,510
140285118,509
140295169,511
140305190,503
140315240,509
140325290,508
140335304,507
140345349,512
140355399,512
140365417,512
140375462,513
140385506,514
140395524,519
140405574,523
140415623,527
140425638,525
140435684,528
140445734,521
140455753,528
140465799,523
140475848,520
140485869,524
140495923,516
140505974,515
140516024,515
140526046,514
140536098,506
140546148,511
140556166,509
140566218,508
140576270,501
140586287,510
140596337,508
140606387,510
140616404,500
140626449,500
140636492,507
140646506,506
140656552,504
140666595,508
140676609,505
140686654,511
140696696,508
140706711,510
140716758,507
140726804,509
140736821,510
140746868,507
140756915,511
140766962,504
140776982,508
140787029,511
140797073,506
140807088,505
140817137,505
140827183,503
140837194,503
140847240,504
140857284,500
140867299,502
140877344,507
140887391,504
140897404,501
140907449,501
140917496,505
140927513,506
140937562,507
140947609,508
140957624,510
140967673,509
140977719,502
140987735,511
140997782,506
141007827,504
141017871,506
141027888,504
141037932,509
141047978,508
141057992,509
141068033,502
141078079,505
141088094,511
141098141,510
141108186,507
141118200,511
141128243,510
141138286,503
141148301,511
141158347,502
141168396,510
141178412,510
141188461,508
141198508,514
141208522,509
141218572,513
141228619,520
141238636,521
141248679,521
141258721,530
141268764,528
141278778,534
141288822,526
141298862,526
141308878,526
141318928,521
141328976,520
141338991,520
141349033,512
141359074,514
141369080,515
141379122,511
141389166,509
141399176,505
141409219,509
141419259,508
141429268,508
141439308,506
141449348,502
141459356,510
141469394,504
141479431,507
141489449,509
141499496,511
141509537,506
141519579,505
141529589,512
141539628,508
141549668,507
141559679,507
141569721,510
141579762,512
141589775,508
141599819,504
141609861,507
141619874,508
141629918,504
141639963,509
141649974,510
141660016,508
141670061,505
141680071,502
141690114,509
141700156,506
141710165,503
141720206,510
141730248,511
141740260,507
141750306,507
141760349,510
141770390,511
141780397,502
141790438,502
141800482,506
141810493,510
141820536,507
141830577,508
141840587,509
141850629,506
141860670,510
141870682,506
141880724,508
141890764,505
141900775,509
141910817,505
141920862,507
141930874,507
141940918,501
141950958,508
141960969,505
141971009,506
141981052,508
141991068,507
142001112,504
142011157,505
142021201,504
142031214,508
142041257,506
142051301,515
142061317,516
142071364,516
142081408,522
142091421,529
142101461,529
142111503,526
142121516,529
142131557,530
142141597,524
142151606,519
142161646,516
142171685,514
142181696,511
142191738,513
142201778,512
142211788,506
142221826,506
142231866,509
142241876,504
142251919,514
142261960,505
142272001,503
142282011,505
142292050,501
142302088,501
142312095,507
142322132,502
142332171,506
142342181,504
142352221,501
142362257,510
142372267,502
142382311,505
142392352,508
142402362,511
142412402,509
142422444,503
142432456,505
142442500,508
142452545,507
142462559,509
142472604,503
142482648,501
142492664,506
142502709,505
142512752,508
142522801,507
142532814,509
142542860,508
142552905,510
142562916,501
142572955,505
142582998,508
142593009,505
142603053,508
142613096,510
142623107,502
142633149,503
142643190,500
142653198,502
142663237,510
142673278,509
142683282,509
142693320,510
142703361,509
142713371,506
142723407,507
142733447,510
142743457,503
142753497,508
142763535,506
142773568,501
142783578,510
142793616,506
142803655,510
142813666,509
142823703,507
142833740,510
142843745,504
142853781,506
142863818,508
142873823,505
142883858,505
142893900,512
142903913,510
142913955,521
142923997,525
142934009,527
142944053,527
142954094,528
142964104,530
142974147,522
142984188,521
142994202,523
143004243,518
143014283,521
143024323,510
143034334,508
143044376,512
143054418,510
143064429,508
143074471,509
143084513,502
143094525,509
143104568,503
143114613,504
143124630,504
143134675,506
143144723,502
143154740,501
143164785,509
143174833,506
143184849,504
143194894,502
143204937,506
143214952,512
143224996,512
143235041,509
143245057,510
143255102,503
143265145,510
143275189,502
143285201,509
143295243,505
143305288,511
143315304,509
143325350,503
143335398,504
143345415,504
143355461,509
143365509,508
143375526,503
143385571,506
143395619,504
143405631,507
143415676,508
143425720,503
143435734,508
143445780,509
143455823,508
143465835,509
143475876,505
143485918,499
143495929,502
143505975,508
143516017,501
143526061,509
143536076,508
143546121,502
143556165,506
143566178,508
143576218,507
143586256,502
143596265,508
143606307,508
143616349,508
143626365,509
143636408,504
143646453,502
143656469,506
143666516,508
143676561,501
143686570,504
143696614,507
143706655,504
143716669,506
143726713,512
143736756,514
143746769,520
143756813,523
143766853,523
143776894,524
143786905,529
143796948,529
143806991,526
143817001,526
143827042,524
143837082,523
143847092,518
143857132,516
143867174,514
143877185,511
143887228,512
143897271,510
143907284,505
143917328,506
143927370,510
143937383,508
143947425,505
143957470,502
143967482,501
143977524,503
143987568,504
143997582,506
144007623,503
144017665,510
144027708,510
144037722,511
144047764,509
144057806,509
144067819,506
144077861,512
144087906,510
144097922,510
144107967,508
144118013,504
144128028,508
144138073,511
144148119,507
144158131,510
144168174,510
144178219,505
144188232,501
144198277,508
144208324,508
144218339,506
144228387,509
144238436,508
144248450,506
144258492,507
144268538,506
144278582,509
144288599,502
144298644,502
144308684,508
144318697,501
144328742,503
144338784,509
144348796,499
144358840,504
144368885,500
144378899,506
144388944,505
144398987,509
144409001,503
144419043,505
144429090,509
144439106,501
144449152,507
144459198,506
144469216,508
144479258,510
144489299,509
144499316,509
144509362,510
144519408,509
144529455,506
144539471,512
144549517,515
144559567,516
144569588,517
144579636,521
144589682,517
144599699,519
144609749,523
144619799,520
144629814,522
144639860,521
144649905,522
144659917,522
144669957,517
144679995,516
144690008,512
144700054,512
144710104,512
144720120,511
144730165,510
144740213,509
144750233,502
144760282,500
144770328,496
144780378,503
144790396,502
144800448,504
144810498,504
144820517,503
144830563,504
144840609,501
144850624,512
144860668,510
144870713,513
144880733,508
144890781,504
144900831,512
144910848,510
144920895,504
144930945,509
144940958,508
144951001,506
144961045,506
144971057,504
144981097,503
144991140,509
145001152,505
145011194,506
145021234,509
145031277,505
145041290,509
145051331,504
145061377,509
145071392,509
145081436,507
145091482,503
145101498,503
145111545,509
145121594,503
145131615,506
145141665,510
145151717,509
145161738,509
145171788,510
145181836,510
145191853,507
145201900,510
145211950,509
145221968,508
145232020,505
145242071,501
145252090,511
145262138,502
145272187,510
145282236,511
145292257,507
145302308,506
145312360,515
145322381,512
145332432,521
145342481,519
145352501,525
145362553,529
145372600,525
145382619,528
145392668,533
145402715,528
145412733,526
145422783,522
145432833,524
145442854,522
145452901,519
145462950,511
145472965,514
145483012,504
145493059,507
145503077,510
145513124,505
145523172,510
145533217,505
145543234,513
145553285,504
145563333,507
145573350,500
145583400,501
145593449,503
145603466,505
145613516,507
145623567,504
145633586,508
145643635,506
145653683,508
145663700,511
145673747,510
145683794,503
145693807,508
145703853,509
145713901,512
145723915,509
145733967,506
145744020,509
145754040,508
145764087,505
145774133,509
145784180,507
145794197,506
145804243,509
145814290,506
145824306,504
145834351,503
145844400,500
145854418,508
145864467,503
145874512,501
145884529,505
145894577,506
145904623,508
145914638,510
145924683,508
145934729,509
145944743,503
145954788,510
145964833,507
145974850,509
145984896,502
145994942,508
146004958,502
146015002,503
146025052,508
146035100,513
146045117,513
146055162,519
146065211,522
146075230,523
146085277,528
146095324,525
146105338,529
146115382,527
146125429,532
146135445,531
146145490,526
146155539,518
146165557,522
146175607,518
146185657,513
146195674,515
146205719,507
146215766,507
146225785,508
146235831,512
146245880,506
146255899,508
146265952,505
146276004,504
146286054,504
146296072,508
146306120,501
146316170,505
146326190,507
146336236,506
146346278,506
146356296,506
146366345,507
146376392,512
146386408,513
146396454,509
146406498,508
146416512,512
146426554,509
146436591,505
146446599,507
146456642,507
146466688,502
146476702,509
146486745,507
146496789,502
146506799,506
146516841,506
146526886,510
146536933,509
146546942,505
146556979,510
146567019,502
146577032,506
146587077,506
146597123,508
146607137,508
146617181,504
146627223,505
146637236,507
146647279,504
146657323,510
146667336,506
146677378,504
146687421,510
146697434,504
146707478,508
146717526,506
146727539,509
146737584,509
146747627,501
146757638,505
146767682,507
146777728,512
146787775,509
146797787,516
146807830,516
146817874,525
146827887,527
146837931,530
146847976,529
146857992,530
146868037,532
146878082,530
146888097,527
146898143,524
146908186,518
146918198,514
146928239,515
146938284,510
146948300,511
146958348,512
146968393,509
146978405,508
146988450,502
146998494,504
147008509,508
147018552,507
147028598,506
147038642,505
147048655,499
147058700,508
147068745,506
147078764,509
147088814,502
147098861,507
147108876,505
147118923,511
147128967,509
147138983,507
147149032,510
147159079,511
147169096,502
147179144,507
147189192,505
147199208,511
147209256,511
147219302,508
147229323,508
147239371,503
147249414,504
147259428,505
147269472,510
147279515,505
147289559,501
147299573,501
147309617,505
147319663,506
147329676,503
147339718,506
147349764,501
147359779,507
147369824,509
147379870,505
147389885,502
147399934,509
147409980,510
147419999,501
147430047,510
147440093,508
147450109,501
147460153,508
147470195,503
147480207,510
147490251,503
147500295,507
147510307,507
147520355,509
147530404,508
147540452,502
147550471,509
147560522,508
147570573,509
147580589,510
147590634,519
147600682,516
147610702,518
147620750,526
147630797,528
147640813,527
147650861,531
147660907,526
147670922,530
147680969,529
147691017,524
147701032,521
147711079,518
147721122,513
147731139,516
147741187,515
147751236,516
147761251,510
147771295,508
147781340,506
147791389,500
147801409,507
147811460,500
147821511,506
147831524,499
147841566,500
147851610,504
147861626,508
147871671,502
147881715,503
147891729,510
147901777,503
147911826,508
147921845,512
147931890,512
147941937,512
147951948,503
147961993,510
147972037,505
147982052,503
147992098,503
148002145,504
148012160,507
148022209,505
148032258,506
148042304,504
148052323,504
148062376,508
148072427,507
148082443,508
148092490,506
148102537,508
148112556,503
148122605,507
148132655,503
148142675,506
148152723,506
148162771,508
148172790,507
148182840,510
148192887,502
148202900,503
148212944,511
148222990,510
148233008,509
148243056,507
148253102,506
148263120,508
148273167,511
148283218,503
148293268,510
148303284,508
148313332,501
148323381,508
148333399,501
148343452,502
148353504,508
148363522,501
148373571,505
148383619,505
148393637,504
148403683,513
148413726,507
148423739,516
148433782,519
148443825,524
148453842,523
148463889,522
148473938,528
148483955,523
148493999,526
148504045,522
148514060,526
148524107,521
148534156,520
148544205,514
148554224,517
148564272,508
148574325,514
148584351,510
148594407,511
148604462,509
148614485,504
148624540,505
148634597,505
148644621,501
148654673,507
148664719,500
148674734,502
148684779,502
148694826,504
148704845,502
148714892,511
148724936,506
148734953,511
148745000,507
148755044,508
148765053,509
148775094,508
148785135,511
148795178,510
148805189,507
148815228,508
148825268,504
148835277,508
148845319,500
148855362,502
148865374,506
148875415,508
148885456,510
148895470,505
148905516,508
148915561,499
148925574,505
148935618,508
148945665,508
148955683,507
148965730,503
148975777,503
148985795,503
148995842,509
149005888,507
149015903,505
149025951,502
149035999,505
149046046,507
149056063,511
149066111,507
149076156,509
149086169,507
149096214,507
149106258,502
149116270,506
149126311,503
149136354,510
149146373,507
149156418,505
149166461,509
149176474,505
149186516,504
149196560,503
149206574,505
149216622,508
149226667,507
149236683,507
149246732,508
149256781,513
149266798,511
149276843,512
149286888,523
149296932,520
149306946,525
149316993,526
149327039,530
149337057,525
149347108,524
149357157,532
149367176,519
149377224,518
149387273,517
149397289,513
149407334,511
149417379,512
149427394,504
149437441,507
149447486,506
149457500,501
149467547,504
149477597,506
149487612,508
149497659,504
149507705,499
149517723,497
149527770,502
149537814,509
149547853,499
149557860,505
149567899,509
149577943,509
149587956,504
149598002,509
149608049,502
149618063,503
149628110,504
149638154,510
149648171,507
149658225,507
149668279,499
149678300,508
149688353,504
149698404,504
149708428,499
149718483,505
149728540,503
149738563,500
149748619,506
149758674,508
149768699,506
149778756,504
149788808,501
149798859,506
149808880,499
149818930,500
149828982,504
149839000,505
149849049,501
149859097,507
149869116,501
149879163,505
149889211,509
149899227,505
149909278,509
149919327,508
149929342,505
149939392,507
149949444,501
149959465,509
149969517,510
149979571,508
149989593,503
149999644,504
150009692,500
150019712,510
150029766,508
150039818,501
150049870,502
150059891,508
150069941,510
150079992,510
150090011,506
150100061,511
150110110,512
150120126,516
150130176,518
150140226,515
150150245,522
150160295,526
150170346,527
150180367,528
150190416,523
150200468,529
150210485,522
150220534,524
150230580,515
150240594,518
150250636,513
150260684,511
150270704,506
150280753,507
150290803,504
150300852,505
150310870,506
150320918,505
150330962,504
150340980,505
150351029,503
150361077,505
150371093,508
150381141,508
150391191,505
150401212,510
150411262,507
150421308,503
150431325,499
150441374,510
150451423,506
150461443,508
150471492,505
150481542,510
150491563,511
150501612,511
150511661,506
150521678,506
150531727,500
150541777,509
150551827,506
150561847,501
150571893,502
150581940,502
150591954,504
150602001,510
150612048,510
150622064,511
150632113,504
150642160,503
150652177,507
150662227,502
150672278,510
150682297,508
150692345,508
150702395,504
150712414,503
150722460,510
150732506,503
150742519,507
150752562,501
150762607,502
150772623,501
150782670,505
150792718,507
150802764,505
150812775,507
150822818,501
150832863,506
150842879,511
150852923,507
150862965,508
150872973,508
150883014,508
150893057,499
150903070,506
150913112,510
150923154,504
150933165,510
150943207,519
150953248,523
150963260,523
150973306,522
150983352,527
150993368,528
151003414,525
151013460,531
151023476,528
151033525,519
151043569,523
151053612,516
151063625,517
151073668,513
151083712,512
151093727,510
151103771,506
151113816,510
151123829,512
151133871,508
151143919,507
151153938,507
151163984,503
151174031,508
151184042,507
151194089,500
151204135,506
151214150,511
151224195,510
151234240,507
151244255,512
151254300,509
151264346,506
151274362,509
151284405,508
151294447,512
151304490,507
151314500,508
151324543,503
151334590,506
151344608,505
151354658,507
151364709,501
151374728,503
151384775,503
151394816,504
151404831,508
151414876,504
151424920,501
151434931,501
151444977,504
151455025,507
151465040,506
151475086,508
151485129,505
151495146,508
151505191,509
151515236,503
151525247,506
151535292,504
151545340,510
151555385,504
151565399,511
151575443,508
151585484,504
151595501,510
151605546,509
151615591,510
151625607,505
151635653,510
151645699,506
151655714,511
151665759,507
151675809,508
151685824,506
151695871,507
151705917,507
151715931,510
151725972,513
151736017,509
151746031,515
151756077,518
151766125,522
151776140,529
151786184,526
151796231,529
151806279,526
151816295,530
151826338,525
151836380,518
151846391,524
151856433,513
151866478,514
151876493,512
151886539,509
151896583,511
151906594,504
151916635,509
151926676,511
151936691,508
151946733,500
151956775,509
151966784,504
151976825,508
151986869,499
151996880,507
152006921,499
152016962,505
152026972,507
152037014,505
152047057,506
152057102,505
152067116,507
152077161,507
152087202,508
152097214,507
152107258,503
152117299,510
152127313,509
152137359,503
152147406,506
152157423,505
152167473,508
152177522,502
152187538,507
152197581,500
152207624,502
152217635,509
152227680,500
152237725,500
152247737,503
152257784,504
152267832,504
152277849,510
152287897,503
152297945,510
152307993,508
152318008,508
152328055,504
152338103,504
152348120,510
152358169,506
152368216,503
152378232,504
152388278,508
152398327,506
152408343,506
152418389,509
152428435,505
152438450,507
152448494,506
152458539,508
152468557,505
152478605,502
152488648,507
152498661,508
152508707,502
152518751,508
152528762,503
152538806,510
152548850,509
152558895,507
152568908,516
152578950,518
152588992,519
152599004,523
152609046,524
152619089,521
152629101,521
152639140,524
152649182,527
152659195,524
152669238,516
152679281,515
152689290,517
152699331,509
152709371,508
152719381,507
152729421,511
152739461,505
152749473,507
152759515,501
152769556,506
152779570,505
152789613,505
152799657,500
152809702,509
152819715,509
152829756,506
152839797,509
152849811,503
152859853,508
152869897,507
152879912,506
152889959,509
152900005,510
152910021,505
152920067,511
152930111,511
152940122,511
152950165,508
152960206,509
152970217,505
152980259,504
152990299,506
153000309,509
153010351,509
153020393,511
153030402,505
153040444,500
153050488,510
153060532,502
153070547,511
153080593,508
153090639,509
153100654,509
153110697,507
153120741,512
153130754,507
153140800,506
153150849,509
153160866,504
153170913,507
153180955,507
153190968,503
153201014,508
153211062,503
153221078,506
153231124,509
153241169,510
153251183,508
153261227,509
153271273,502
153281288,502
153291336,506
153301380,504
153311427,505
153321439,510
153331484,512
153341527,516
153351538,517
153361581,523
153371625,522
153381637,526
153391675,525
153401714,519
153411723,527
153421761,524
153431806,517
153441821,524
153451863,520
153461905,514
153471919,511
153481965,512
153492010,505
153502027,505
153512072,508
153522117,502
153532133,508
153542181,505
153552228,498
153562276,503
153572293,502
153582341,508
153592385,510
153602401,505
153612449,508
153622494,504
153632505,507
153642549,510
153652594,505
153662608,511
153672653,510
153682698,509
153692711,510
153702751,507
153712796,503
153722811,512
153732856,510
153742897,512
153752910,505
153762952,507
153772995,509
153783010,509
153793054,502
153803099,503
153813142,508
153823156,508
153833201,507
153843244,501
153853257,503
153863303,505
153873348,506
153883363,508
153893406,507
153903447,499
153913456,505
153923499,508
153933540,507
153943549,505
153953592,508
153963633,509
153973642,505
153983684,510
153993725,503
154003736,509
154013779,510
154023824,507
154033838,505
154043882,508
154053924,504
154063969,505
154073982,504
154084024,507
154094065,503
154104079,514
154114122,515
154124164,514
154134175,515
154144219,522
154154262,529
154164275,530
154174318,529
154184360,531
154194371,522
154204414,522
154214459,522
154224472,517
154234515,519
154244558,519
154254572,512
154264616,514
154274660,504
154284672,509
154294715,503
154304757,500
154314799,507
154324811,502
154334855,507
154344897,505
154354908,506
154364951,508
154374993,502
154385002,509
154395045,507
154405091,510
154415108,506
154425159,508
154435204,506
154445220,503
154455269,509
154465317,494
154475335,506
154485384,508
154495435,508
154505451,506
154515497,501
154525547,510
154535564,503
154545607,509
154555652,505
154565697,504
154575712,502
154585754,505
154595800,508
154605816,504
154615860,506
154625903,499
154635918,507
154645964,509
154656010,510
154666026,508
154676074,510
154686120,510
154696137,504
154706185,507
154716234,501
154726248,508
154736293,511
154746335,506
154756349,505
154766392,503
154776438,501
154786451,507
154796494,509
154806540,508
154816586,501
154826600,509
154836648,504
154846693,506
154856703,510
154866745,507
154876787,512
154886800,514
154896848,517
154906895,517
154916909,525
154926952,526
154936995,528
154947008,526
154957053,527
154967098,528
154977112,521
154987157,522
154997203,514
155007220,512
155017268,510
155027315,514
155037333,512
155047383,509
155057438,511
155067493,506
155077517,505
155087572,500
155097626,499
155107648,502
155117693,507
155127742,505
155137759,502
155147801,499
155157849,507
155167867,505
155177915,502
155187961,505
155197976,506
155208022,503
155218068,508
155228078,510
155238119,510
155248164,508
155258180,502
155268227,508
155278273,509
155288287,508
155298328,508
155308372,505
155318417,500
155328430,507
155338474,508
155348519,506
155358534,502
155368581,507
155378625,502
155388641,501
155398690,507
155408736,506
155418751,506
155428798,510
155438845,506
155448860,510
155458901,507
155468944,510
155478955,501
155488997,503
155499040,507
155509057,505
155519099,511
155529142,509
155539154,506
155549197,503
155559237,509
155569279,501
155579295,503
155589342,503
155599389,509
155609407,499
155619454,504
155629502,509
155639520,503
155649569,507
155659620,508
155669640,507
155679689,505
155689738,504
155699757,511
155709810,508
155719860,518
155729873,523
155739913,517
155749960,518
155759975,520
155770022,526
155780070,521
155790085,522
155800130,522
155810179,513
155820230,517
155830246,519
155840294,510
155850344,513
155860361,505
155870407,508
155880448,511
155890463,509
155900507,500
155910548,502
155920561,505
155930602,507
155940645,505
155950655,508
155960700,507
155970745,506
155980761,507
155990807,509
156000853,505
156010865,510
156020909,504
156030952,504
156040967,510
156051013,509
156061059,507
156071106,509
156081120,506
156091163,506
156101208,509
156111226,501
156121271,508
156131315,505
156141329,504
156151375,502
156161422,503
156171439,507
156181485,503
156191531,505
156201542,508
156211584,501
156221629,508
156231646,500
156241692,502
156251737,504
156261751,509
156271795,503
156281841,510
156291855,509
156301901,501
156311945,511
156321990,506
156332005,506
156342049,505
156352093,509
156362108,506
156372152,507
156382197,507
156392210,509
156402255,508
156412298,510
156422307,509
156432346,508
156442385,504
156452394,509
156462434,510
156472475,511
156482484,512
156492525,518
156502565,513
156512574,518
156522618,517
156532663,518
156542674,527
156552715,528
156562758,521
156572801,523
156582812,521
156592856,517
156602897,519
156612910,520
156622953,510
156632997,506
156643009,510
156653050,512
156663092,507
156673106,509
156683150,509
156693193,509
156703204,508
156713243,500
156723286,504
156733300,489
156743339,503
156753378,500
156763387,504
156773428,509
156783470,504
156793483,511
156803524,509
156813565,506
156823608,505
156833622,508
156843667,510
156853711,509
156863725,502
156873770,508
156883813,510
156893827,510
156903872,506
156913915,508
156923928,508
156933969,506
156944010,508
156954022,510
156964062,503
156974103,507
156984119,510
156994162,509
157004206,510
157014219,503
157024266,501
157034309,502
157044322,506
157054366,504
157064413,509
157074461,508
157084477,506
157094524,506
157104570,507
157114585,502
157124630,509
157134675,510
157144687,508
157154731,508
157164774,501
157174788,509
157184832,510
157194876,507
157204891,501
157214939,505
157224984,503
157234999,505
157245043,503
157255090,504
157265103,506
157275150,516
157285195,521
157295209,524
157305254,525
157315300,527
157325347,525
157335365,521
157345410,522
157355455,526
157365469,524
157375515,522
157385561,522
157395575,520
157405615,510
157415662,513
157425677,512
157435722,513
157445771,508
157455790,509
157465835,513
157475883,508
157485899,507
157495945,504
157505992,503
157516010,506
157526059,502
157536107,508
157546122,500
157556167,502
157566213,505
157576257,510
157586270,506
157596314,512
157606357,508
157616366,505
157626404,506
157636446,511
157646455,502
157656493,510
157666538,506
157676546,512
157686586,510
157696627,509
157706641,506
157716682,510
157726726,510
157736738,507
157746782,507
157756827,509
157766839,509
157776880,508
157786922,502
157796936,505
157806975,504
157817014,507
157827052,510
157837064,506
157847102,505
157857143,510
157867155,504
157877199,504
157887245,505
157897262,510
157907310,508
157917356,504
157927368,508
157937412,502
157947454,501
157957468,507
157967513,510
157977557,510
157987570,510
157997616,510
158007659,507
158017674,509
158027720,509
158037763,507
158047776,510
158057821,503
158067865,503
158077910,511
158087925,512
158097970,517
158108017,521
158118033,522
158128078,521
158138121,523
158148136,528
158158182,529
158168228,524
158178240,523
158188287,524
158198334,517
158208352,519
158218400,516
158228447,516
158238462,516
158248509,512
158258556,510
158268569,511
158278613,509
158288659,506
158298672,503
158308716,506
158318765,503
158328817,508
158338836,503
158348884,506
158358933,510
158368951,511
158378997,512
158389042,505
158399057,506
158409102,509
158419147,513
158429161,512
158439207,509
158449254,512
158459269,510
158469314,511
158479357,508
158489370,505
158499413,501
158509454,502
158519466,502
158529509,508
158539551,507
158549565,509
158559608,505
158569651,506
158579691,511
158589702,510
158599746,509
158609787,510
158619801,510
158629845,505
158639888,506
158649897,508
158659938,511
158669974,505
158679980,503
158690022,508
158700066,506
158710079,505
158720123,510
158730166,506
158740173,508
158750217,508
158760265,505
158770278,504
158780319,509
158790363,505
158800376,499
158810417,508
158820459,504
158830503,507
158840515,510
158850560,508
158860602,513
158870616,513
158880659,515
158890701,513
158900710,523
158910752,527
158920792,525
158930802,524
158940842,520
158950885,527
158960901,524
158970944,522
158980990,517
158991004,514
159001044,517
159011090,507
159021106,514
159031153,508
159041197,512
159051209,502
159061253,507
159071296,502
159081338,505
159091353,503
159101395,507
159111437,506
159121452,499
159131497,499
159141543,507
159151557,507
159161601,508
159171642,507
159181654,511
159191701,511
159201746,509
159211759,512
159221800,512
159231841,509
159241847,505
159251886,502
159261927,511
159271940,506
159281982,504
159292026,503
159302040,507
159312085,508
159322130,507
159332173,507
159342188,509
159352232,509
159362272,499
159372283,509
159382325,510
159392366,508
