timestamp, ppg
3805297,501
3815420,502
3825468,504
3835514,506
3845526,505
3855569,505
3865611,506
3875624,507
3885667,501
3895712,508
3905727,508
3915773,503
3925814,507
3935826,502
3945870,510
3955914,510
3965928,516
3975972,518
3986014,531
3996025,528
4006069,531
4016112,530
4026153,534
4036165,533
4046206,524
4056243,523
4066249,518
4076289,519
4086329,518
4096340,510
4106391,510
4116440,508
4126459,505
4136505,501
4146551,503
4156567,501
4166613,505
4176658,505
4186674,505
4196718,498
4206763,501
4216778,509
4226825,505
4236872,506
4246888,511
4256932,504
4266977,508
4276992,502
4287037,504
4297082,509
4307128,500
4317144,508
4327196,500
4337246,510
4347265,503
4357312,506
4367359,506
4377374,505
4387421,500
4397467,505
4407481,503
4417525,504
4427572,501
4437595,500
4447641,503
4457685,502
4467700,506
4477746,503
4487793,500
4497810,504
4507860,501
4517907,509
4527955,507
4537972,508
4548022,503
4558071,508
4568082,507
4578128,507
4588174,508
4598190,507
4608238,509
4618287,508
4628303,499
4638352,503
4648400,508
4658410,509
4668454,508
4678498,505
4688511,504
4698554,508
4708597,506
4718607,506
4728646,517
4738689,519
4748701,520
4758746,523
4768789,527
4778834,526
4788851,535
4798894,534
4808936,539
4818946,524
4828987,520
4839034,524
4849048,519
4859094,516
4869138,510
4879152,510
4889196,508
4899241,504
4909255,508
4919297,507
4929343,498
4939361,504
4949408,504
4959454,503
4969470,500
4979515,497
4989558,504
4999573,501
5009618,505
5019662,506
5029674,509
5039719,510
5049762,511
5059804,511
5069816,506
5079857,506
5089900,502
5099907,503
5109948,504
5119988,503
5129997,503
5140037,500
5150076,501
5160083,497
5170124,496
5180163,503
5190174,499
5200213,501
5210254,502
5220263,507
5230297,503
5240331,501
5250340,498
5260378,499
5270416,506
5280424,505
5290463,505
5300501,504
5310541,502
5320551,505
5330595,504
5340639,499
5350653,504
5360697,504
5370743,502
5380757,495
5390799,500
5400842,500
5410851,497
5420890,501
5430930,502
5440939,498
5450980,500
5461024,497
5471038,499
5481080,499
5491123,504
5501132,503
5511175,504
5521215,515
5531255,516
5541264,521
5551306,521
5561346,530
5571352,527
5581389,535
5591427,531
5601433,532
5611467,530
5621500,521
5631504,525
5641540,522
5651577,514
5661582,510
5671621,511
5681663,508
5691673,508
5701714,503
5711755,506
5721770,502
5731811,494
5741852,502
5751866,503
5761908,504
5771951,504
5781961,506
5792002,500
5802046,507
5812086,503
5822095,507
5832133,509
5842174,510
5852182,513
5862221,510
5872261,510
5882268,514
5892306,509
5902346,503
5912355,503
5922393,506
5932432,509
5942443,501
5952484,506
5962530,502
5972544,508
5982589,509
5992636,499
6002651,505
6012698,508
6022740,505
6032751,505
6042794,507
6052835,505
6062877,509
6072887,508
6082926,509
6092966,511
6102975,509
6113015,509
6123054,509
6133064,506
6143101,507
6153142,508
6163153,506
6173194,507
6183237,503
6193247,509
6203290,504
6213333,507
6223344,511
6233387,514
6243430,517
6253441,523
6263485,528
6273528,529
6283536,531
6293576,535
6303620,536
6313664,528
6323675,532
6333719,526
6343765,527
6353776,522
6363816,516
6373861,515
6383874,512
6393918,514
6403961,509
6413975,512
6424019,508
6434063,500
6444076,499
6454117,499
6464160,500
6474173,504
6484215,506
6494256,498
6504269,508
6514311,509
6524354,503
6534367,508
6544411,506
6554453,507
6564494,501
6574506,505
6584547,506
6594590,507
6604603,504
6614642,508
6624682,511
6634695,505
6644736,504
6654772,504
6664777,502
6674819,510
6684856,508
6694863,503
6704903,510
6714942,507
6724950,503
6734988,509
6745025,502
6755032,509
6765069,509
6775110,506
6785117,508
6795155,508
6805193,503
6815230,505
6825238,506
6835278,512
6845320,507
6855328,506
6865366,504
6875404,501
6885409,507
6895444,510
6905480,507
6915486,500
6925526,504
6935566,507
6945573,514
6955609,518
6965648,520
6975655,525
6985693,528
6995730,533
7005737,538
7015771,537
7025809,535
7035845,536
7045850,527
7055889,531
7065928,523
7075936,525
7085974,522
7096015,515
7106023,517
7116060,519
7126095,508
7136102,513
7146142,512
7156180,509
7166189,506
7176225,505
7186261,507
7196268,499
7206305,506
7216341,505
7226349,498
7236389,501
7246428,500
7256439,504
7266480,503
7276521,501
7286530,503
7296571,502
7306611,500
7316650,500
7326661,501
7336701,501
7346743,495
7356756,500
7366797,498
7376838,493
7386848,498
7396889,498
7406930,499
7416937,499
7426978,502
7437017,499
7447027,496
7457062,502
7467103,498
7477112,501
7487154,499
7497195,502
7507205,507
7517248,505
7527288,505
7537298,507
7547338,506
7557377,508
7567419,504
7577428,508
7587469,510
7597507,510
7607519,505
7617558,507
7627599,502
7637609,501
7647652,507
7657695,500
7667705,506
7677745,506
7687780,510
7697786,516
7707825,517
7717864,528
7727870,526
7737909,535
7747948,533
7757957,532
7767998,531
7778040,533
7788082,532
7798089,520
7808128,521
7818167,523
7828175,517
7838212,512
7848250,516
7858257,513
7868298,505
7878339,505
7888350,505
7898390,505
7908431,500
7918440,503
7928479,498
7938520,501
7948531,505
7958572,503
7968612,503
7978622,509
7988664,508
7998707,505
8008718,502
8018758,502
8028798,508
8038810,508
8048853,506
8058895,504
8068932,497
8078939,501
8088978,497
8099017,500
8109026,497
8119066,489
8129107,490
8139117,489
8149159,490
8159204,492
8169219,497
8179265,499
8189310,497
8199325,500
8209370,499
8219413,496
8229424,495
8239465,495
8249506,496
8259517,497
8269555,494
8279595,498
8289605,501
8299644,498
8309682,494
8319719,501
8329728,502
8339766,503
8349804,505
8359811,505
8369849,503
8379889,506
8389899,507
8399938,512
8409979,511
8419990,520
8430031,518
8440076,531
8450089,536
8460129,534
8470173,537
8480187,543
8490230,537
8500275,533
8510286,532
8520327,527
8530368,524
8540378,515
8550421,510
8560462,513
8570503,499
8580516,498
8590559,500
8600606,503
8610619,499
8620662,498
8630705,497
8640717,499
8650760,502
8660802,498
8670814,502
8680858,508
8690899,502
8700910,505
8710950,503
8720990,505
8731000,509
8741040,505
8751080,508
8761090,512
8771129,514
8781167,516
8791207,506
8801216,509
8811255,510
8821297,511
8831304,509
8841341,506
8851379,508
8861389,511
8871429,507
8881467,510
8891475,499
8901512,504
8911547,505
8921558,505
8931597,504
8941636,505
8951647,500
8961687,499
8971725,501
8981736,500
8991777,498
9001826,496
9011838,496
9021880,496
9031917,493
9041957,503
9051966,502
9062007,500
9072046,503
9082053,498
9092093,506
9102133,510
9112139,513
9122176,517
9132214,527
9142222,528
9152261,535
9162301,534
9172311,539
9182349,539
9192387,536
9202393,528
9212429,527
9222467,527
9232475,521
9242513,515
9252550,513
9262558,513
9272596,511
9282636,508
9292675,505
9302683,502
9312721,503
9322760,497
9332766,495
9342803,489
9352838,496
9362845,496
9372885,499
9382922,495
9392929,497
9402969,501
9413006,504
9423012,496
9433049,504
9443087,500
9453094,500
9463132,506
9473170,510
9483179,506
9493219,506
9503259,508
9513261,507
9523293,503
9533329,497
9543365,503
9553370,503
9563406,497
9573446,501
9583454,499
9593494,501
9603537,504
9613548,497
9623592,503
9633634,500
9643648,504
9653689,501
9663732,504
9673745,501
9683789,507
9693830,503
9703842,507
9713883,505
9723921,504
9733932,508
9743974,500
9754015,499
9764026,503
9774065,503
9784106,507
9794148,501
9804159,503
9814200,513
9824241,519
9834252,521
9844291,531
9854333,534
9864345,542
9874387,533
9884427,537
9894430,531
9904467,525
9914505,524
9924511,521
9934550,519
9944590,512
9954596,506
9964634,508
9974671,504
9984677,504
9994716,502
10004762,501
10014777,499
10024825,497
10034873,503
10044890,504
10054935,502
10064975,501
10075015,506
10085022,505
10095059,502
10105097,505
10115106,508
10125148,505
10135192,502
10145200,500
10155239,501
10165283,497
10175293,499
10185334,494
10195370,496
10205376,495
10215417,487
10225461,492
10235475,485
10245520,494
10255565,492
10265576,496
10275619,492
10285661,488
10295673,493
10305715,492
10315759,498
10325801,501
10335810,502
10345851,498
10355889,498
10365899,501
10375939,502
10385979,505
10395991,507
10406032,505
10416075,506
10426087,507
10436130,506
10446173,505
10456186,506
10466226,507
10476261,508
10486269,506
10496311,506
10506352,511
10516363,507
10526402,503
10536439,507
10546478,518
10556489,519
10566530,527
10576574,529
10586586,529
10596628,535
10606671,540
10616685,544
10626727,544
10636770,540
10646782,537
10656825,537
10666869,527
10676881,525
10686926,520
10696969,514
10706981,509
10717025,510
10727069,507
10737081,504
10747120,505
10757158,501
10767161,500
10777203,497
10787243,498
10797284,496
10807293,495
10817332,495
10827367,493
10837377,501
10847420,496
10857464,503
10867476,501
10877515,507
10887557,504
10897569,509
10907613,506
10917656,510
10927666,505
10937709,505
10947755,502
10957767,507
10967810,510
10977854,510
10987867,506
10997911,505
11007954,506
11017968,504
11028014,502
11038056,499
11048097,499
11058108,501
11068152,499
11078194,497
11088206,504
11098248,504
11108295,504
11118310,508
11128355,505
11138400,499
11148415,503
11158460,504
11168506,508
11178521,505
11188564,505
11198605,506
11208618,504
11218663,509
11228705,508
11238720,499
11248764,505
11258809,504
11268824,504
11278868,497
11288914,505
11298959,501
11308974,504
11319020,507
11329062,511
11339074,513
11349119,522
11359163,523
11369174,526
11379216,529
11389261,530
11399274,539
11409316,535
11419362,531
11429373,534
11439419,534
11449466,532
11459480,527
11469524,522
11479564,512
11489578,514
11499625,510
11509673,509
11519685,508
11529731,502
11539775,502
11549817,499
11559833,496
11569878,499
11579924,494
11589938,501
11599981,500
11610027,503
11620048,503
11630095,507
11640139,503
11650155,504
11660204,504
11670251,504
11680266,509
11690311,508
11700359,507
11710372,508
11720410,500
11730449,501
11740460,503
11750504,502
11760549,509
11770563,506
11780606,508
11790652,508
11800699,502
11810713,504
11820754,505
11830795,505
11840807,505
11850850,505
11860892,501
11870905,506
11880946,505
11890987,504
11901003,502
11911049,508
11921092,504
11931106,506
11941149,497
11951191,499
11961201,508
11971242,508
11981283,506
11991290,509
12001328,507
12011368,506
12021376,507
12031418,513
12041463,517
12051477,521
12061522,530
12071567,536
12081611,539
12091625,544
12101669,544
12111711,549
12121724,539
12131766,545
12141804,537
12151815,537
12161855,525
12171893,525
12181902,521
12191941,516
12201983,512
12211994,505
12222037,504
12232081,496
12242092,503
12252132,498
12262173,500
12272186,497
12282227,498
12292267,498
12302276,503
12312317,503
12322356,500
12332394,502
12342405,506
12352446,506
12362483,510
12372493,508
12382532,504
12392570,511
12402580,509
12412618,504
12422659,507
12432667,506
12442704,511
12452742,508
12462753,506
12472792,506
12482827,506
12492834,503
12502875,504
12512915,505
12522920,506
12532958,503
12542997,506
12553006,506
12563046,504
12573088,501
12583129,502
12593139,499
12603177,506
12613218,508
12623227,509
12633270,511
12643311,503
12653319,511
12663355,509
12673394,511
12683400,511
12693433,503
12703479,508
12713494,505
12723533,506
12733572,504
12743580,507
12753619,511
12763659,515
12773668,522
12783704,530
12793744,532
12803753,542
12813795,548
12823833,546
12833872,553
12843883,550
12853926,541
12863967,541
12873978,534
12884017,532
12894059,526
12904071,521
12914110,514
12924148,508
12934152,506
12944191,515
12954230,495
12964238,491
12974275,489
12984314,492
12994324,489
13004371,496
13014419,492
13024434,492
13034477,497
13044517,505
13054527,502
13064568,509
13074607,509
13084651,509
13094661,510
13104699,509
13114739,511
13124749,510
13134787,510
13144827,511
13154835,508
13164876,505
13174918,502
13184931,501
13194970,504
13205011,504
13215025,505
13225067,497
13235110,506
13245120,504
13255163,506
13265207,498
13275219,506
13285262,504
13295309,505
13305325,506
13315369,504
13325408,504
13335447,501
13345457,503
13355499,498
13365540,508
13375551,505
13385596,504
13395640,501
13405654,505
13415699,499
13425741,508
13435754,506
13445794,505
13455837,508
13465851,507
13475892,510
13485935,503
13495948,507
13505990,513
13516032,519
13526042,530
13536085,532
13546124,536
13556135,541
13566180,535
13576220,544
13586257,537
13596266,539
13606308,535
13616350,525
13626360,522
13636401,519
13646439,514
13656446,510
13666486,508
13676528,498
13686541,501
13696583,501
13706624,495
13716637,499
13726678,499
13736718,496
13746727,498
13756768,498
13766807,499
13776817,498
13786860,497
13796905,501
13806919,506
13816968,504
13827015,504
13837055,508
13847062,510
13857103,510
13867146,510
13877157,502
13887201,509
13897244,510
13907256,504
13917298,509
13927340,505
13937350,508
13947392,498
13957432,504
13967442,500
13977486,497
13987530,496
13997545,503
14007587,502
14017631,506
14027644,502
14037685,499
14047724,503
14057731,505
14067771,505
14077813,509
14087856,501
14097866,503
14107905,503
14117943,509
14127946,509
14137984,504
14148021,506
14158030,505
14168074,508
14178116,511
14188126,510
14198169,508
14208211,512
14218224,519
14228267,527
14238307,536
14248319,533
14258359,540
14268398,543
14278411,533
14288454,537
14298497,536
14308509,535
14318550,532
14328592,531
14338632,517
14348643,520
14358683,518
14368725,506
14378732,514
14388771,500
14398810,506
14408820,504
14418861,505
14428903,504
14438914,497
14448955,503
14458992,502
14469002,501
14479044,504
14489088,505
14499098,504
14509139,503
14519181,507
14529193,504
14539235,505
14549278,511
14559321,506
14569332,506
14579376,508
14589421,511
14599436,508
14609482,506
14619527,504
14629544,508
14639589,509
14649633,509
14659641,501
14669681,501
14679726,492
14689739,501
14699782,507
14709829,510
14719846,504
14729890,506
14739936,509
14749951,504
14759994,506
14770032,504
14780041,504
14790082,505
14800124,506
14810167,503
14820180,502
14830224,504
14840268,504
14850282,504
14860328,500
14870374,506
14880387,512
14890427,511
14900471,512
14910480,525
14920520,529
14930566,534
14940581,529
14950624,533
14960665,539
14970676,535
14980720,532
14990764,525
15000776,523
15010817,522
15020861,517
15030873,512
15040916,514
15050959,510
15060970,505
15071012,503
15081057,497
15091103,496
15101117,502
15111164,499
15121208,495
15131224,491
15141266,498
15151310,499
15161321,503
15171366,496
15181410,497
15191425,498
15201471,507
15211516,505
15221534,508
15231586,504
15241635,498
15251648,500
15261694,503
15271740,505
15281753,505
15291794,508
15301829,508
15311832,507
15321870,504
15331909,505
15341949,503
15351960,504
15362001,503
15372042,502
15382052,506
15392093,498
15402135,504
15412147,502
15422188,504
15432229,502
15442238,502
15452278,503
15462316,500
15472324,505
15482364,500
15492404,502
15502411,499
15512452,500
15522495,504
15532507,497
15542549,499
15552594,504
15562606,504
15572649,505
15582690,511
15592735,515
15602748,518
15612791,524
15622832,534
15632843,536
15642884,535
15652927,534
15662939,532
15672980,535
15683019,532
15693026,525
15703062,527
15713102,523
15723109,511
15733148,511
15743187,508
15753196,504
15763234,498
15773269,503
15783280,498
15793320,500
15803360,496
15813399,493
15823406,497
15833446,499
15843488,499
15853502,500
15863539,500
15873575,501
15883580,501
15893621,505
15903662,510
15913673,510
15923714,512
15933757,510
15943768,509
15953810,512
15963852,511
15973863,512
15983904,513
15993948,508
16003957,508
16013996,511
16024035,510
16034047,509
16044086,505
16054127,508
16064137,500
16074181,506
16084225,507
16094266,502
16104274,505
16114313,509
16124355,500
16134370,501
16144416,509
16154460,498
16164472,509
16174519,505
16184564,509
16194578,507
16204622,503
16214667,506
16224682,507
16234725,509
16244772,509
16254785,507
16264827,508
16274869,513
16284881,514
16294923,524
16304963,524
16315005,529
16325015,533
16335053,539
16345094,538
16355108,536
16365151,531
16375193,534
16385203,527
16395247,523
16405292,518
16415303,514
16425344,512
16435384,508
16445394,508
16455436,499
16465480,502
16475489,498
16485530,501
16495569,493
16505580,497
16515621,496
16525663,495
16535677,492
16545721,500
16555765,501
16565811,504
16575824,505
16585867,499
16595905,508
16605913,503
16615951,503
16625989,500
16635999,507
16646038,506
16656079,509
16666093,500
16676137,506
16686176,501
16696185,504
16706224,504
16716267,499
16726280,505
16736322,502
16746363,505
16756374,504
16766415,499
16776454,508
16786461,506
16796501,502
16806540,506
16816580,507
16826589,502
16836629,508
16846671,503
16856683,501
16866726,505
16876766,507
16886774,499
16896813,502
16906852,502
16916863,498
16926903,503
16936943,497
16946955,501
16956998,505
16967042,504
16977056,510
16987098,509
16997139,508
17007151,518
17017195,523
17027238,528
17037251,529
17047290,533
17057327,534
17067335,527
17077376,531
17087417,525
17097459,526
17107468,521
17117509,520
17127550,517
17137561,507
17147603,508
17157645,503
17167657,504
17177698,498
17187737,495
17197746,500
17207786,495
17217825,497
17227834,495
17237875,494
17247917,499
17257927,502
17267967,499
17278008,501
17288020,503
17298064,498
17308102,509
17318113,508
17328153,506
17338195,505
17348234,504
17358241,508
17368278,506
17378317,501
17388326,505
17398366,506
17408411,504
17418424,502
17428468,505
17438512,504
17448527,502
17458566,501
17468604,505
17478610,503
17488648,502
17498685,504
17508693,505
17518736,506
17528776,507
17538784,504
17548824,504
17558867,501
17568879,499
17578924,507
17588965,501
17599007,505
17609014,506
17619056,507
17629095,507
17639107,508
17649151,499
17659192,511
17669203,508
17679246,500
17689287,504
17699298,506
17709338,511
17719380,513
17729391,520
17739434,528
17749477,533
17759492,531
17769539,534
17779580,535
17789592,537
17799637,538
17809681,534
17819694,534
17829738,519
17839783,522
17849827,519
17859842,510
17869886,508
17879928,501
17889940,501
17899978,498
17910022,496
17920038,499
17930085,494
17940127,494
17950141,498
17960185,495
17970227,498
17980240,503
17990282,505
18000325,506
18010335,504
18020381,508
18030424,509
18040438,509
18050481,510
18060524,503
18070535,505
18080580,506
18090627,504
18100672,501
18110685,511
18120728,506
18130772,507
18140784,508
18150823,510
18160866,505
18170880,503
18180921,504
18190960,504
18200970,504
18211010,504
18221052,504
18231063,500
18241104,504
18251146,504
18261157,502
18271197,505
18281238,500
18291247,500
18301286,505
18311321,500
18321329,499
18331366,500
18341402,502
18351442,504
18361452,499
18371496,507
18381542,501
18391554,499
18401596,506
18411638,509
18421651,502
18431694,503
18441737,507
18451747,519
18461792,523
18471837,524
18481851,526
18491894,529
18501938,523
18511952,525
18521999,527
18532043,524
18542054,524
18552097,514
18562141,512
18572153,516
18582195,507
18592239,512
18602278,508
18612287,507
18622330,505
18632369,505
18642379,498
18652422,497
18662462,501
18672473,497
18682515,496
18692555,501
18702564,507
18712602,506
18722642,504
18732652,508
18742693,505
18752732,506
18762742,506
18772783,506
18782823,507
18792832,508
18802869,510
18812901,508
18822908,501
18832945,511
18842984,509
18853025,509
18863037,509
18873077,505
18883121,506
18893138,504
18903187,506
18913234,504
18923243,502
18933282,497
18943321,496
18953327,501
18963363,498
18973405,499
18983417,506
18993455,504
19003491,504
19013499,505
19023539,504
19033579,503
19043588,499
19053627,505
19063669,503
19073682,506
19083726,501
19093766,504
19103803,506
19113815,501
19123857,512
19133899,507
19143911,511
19153946,516
19163984,522
19173995,529
19184035,525
19194074,530
19204082,529
19214124,530
19224169,531
19234184,527
19244227,529
19254270,525
19264282,523
19274324,516
19284366,511
19294377,511
19304417,510
19314455,505
19324492,506
19334500,504
19344543,502
19354590,503
19364610,503
19374652,503
19384694,506
19394705,503
19404747,501
19414788,504
19424799,509
19434841,506
19444883,512
19454893,509
19464931,511
19474969,514
19484976,504
19495016,509
19505054,510
19515066,508
19525106,511
19535145,505
19545152,509
19555191,510
19565229,504
19575272,507
19585283,501
19595322,503
19605360,504
19615370,510
19625411,503
19635456,508
19645470,506
19655518,504
19665563,507
19675578,508
19685620,504
19695661,506
19705673,505
19715716,504
19725761,506
19735772,502
19745813,505
19755858,508
19765869,510
19775914,510
19785955,510
19795970,518
19806012,521
19816054,524
19826095,527
19836106,535
19846149,532
19856191,539
19866205,543
19876252,540
19886300,536
19896317,541
19906363,530
19916407,524
19926419,528
19936463,514
19946507,513
19956521,515
19966565,506
19976610,499
19986623,497
19996662,500
20006703,498
20016714,496
20026757,493
20036797,493
20046806,495
20056846,495
20066886,501
20076898,503
20086939,505
20096980,504
20107023,505
20117033,505
20127076,506
20137117,510
20147125,507
20157167,501
20167205,511
20177215,510
20187257,506
20197301,506
20207314,509
20217356,507
20227401,502
20237412,506
20247455,504
20257499,508
20267511,503
20277553,501
20287598,506
20297610,508
20307651,507
20317694,507
20327738,508
20337752,507
20347794,501
20357839,502
20367853,508
20377894,508
20387938,505
20397952,504
20407996,506
20418039,502
20428054,505
20438096,508
20448138,509
20458150,509
20468189,512
20478232,513
20488246,522
20498291,525
20508333,530
20518343,535
20528384,539
20538424,532
20548434,541
20558476,540
20568518,539
20578561,532
20588574,532
20598621,528
20608666,519
20618678,515
20628719,511
20638762,512
20648775,505
20658820,502
20668864,501
20678876,493
20688921,492
20698967,489
20708981,494
20719024,489
20729069,492
20739082,492
20749127,495
20759171,498
20769186,490
20779229,498
20789271,498
20799284,490
20809327,492
20819371,494
20829417,502
20839430,496
20849476,496
20859522,499
20869537,495
20879581,502
20889626,498
20899642,499
20909690,497
20919735,498
20929745,504
20939786,506
20949830,500
20959844,496
20969887,504
20979933,502
20989947,504
20999993,501
21010036,504
21020048,503
21030091,501
21040133,508
21050144,506
21060186,503
21070227,507
21080270,505
21090286,502
21100330,511
21110371,507
21120383,503
21130426,508
21140469,504
21150485,503
21160532,509
21170577,505
21180591,512
21190633,508
21200677,518
21210692,518
21220734,524
21230778,525
21240792,527
21250836,531
21260881,531
21270896,526
21280940,522
21290983,528
21300995,521
21311035,514
21321079,512
21331125,509
21341141,514
21351184,512
21361228,509
21371242,506
21381289,498
21391336,503
21401349,502
21411393,500
21421438,504
21431451,507
21441494,505
21451533,506
21461542,509
21471579,508
21481618,507
21491632,508
21501677,504
21511721,505
21521734,507
21531775,508
21541815,505
21551828,510
21561871,509
21571913,507
21581957,505
21591967,509
21602009,507
21612049,499
21622059,504
21632100,504
21642138,503
21652143,505
21662185,506
21672228,504
21682241,505
21692283,504
21702326,505
21712337,504
21722376,498
21732419,502
21742430,503
21752472,503
21762513,498
21772524,504
21782564,505
21792606,504
21802613,504
21812651,505
21822689,507
21832726,504
21842735,503
21852771,508
21862809,505
21872815,504
21882853,503
21892892,502
21902898,510
21912939,508
21922984,512
21932998,518
21943043,515
21953085,517
21963099,529
21973141,531
21983182,524
21993194,523
22003236,531
22013276,526
22023288,526
22033331,520
22043371,519
22053382,517
22063423,513
22073460,505
22083500,508
22093509,501
22103546,503
22113589,503
22123597,503
22133637,504
22143674,496
22153685,503
22163728,499
22173767,496
22183777,502
22193816,502
22203856,504
22213866,508
22223907,510
22233947,507
22243955,503
22253995,508
22264042,511
22274056,508
22284101,505
22294146,511
22304161,510
22314208,502
22324255,509
22334295,503
22344309,510
22354354,505
22364396,506
22374406,507
22384449,507
22394496,501
22404509,507
22414553,505
22424597,499
22434614,499
22444661,501
22454707,507
22464722,507
22474766,501
22484810,505
22494824,509
22504870,505
22514912,508
22524927,506
22534973,507
22545018,510
22555030,508
22565073,501
22575119,504
22585166,500
22595182,509
22605231,504
22615275,509
22625286,508
22635328,501
22645374,507
22655389,510
22665433,508
22675480,513
22685497,520
22695544,519
22705592,524
22715608,529
22725651,528
22735695,525
22745710,526
22755753,535
22765797,527
22775810,529
22785854,524
22795899,524
22805914,520
22815958,513
22826001,514
22836043,512
22846051,507
22856086,508
22866124,504
22876132,505
22886170,508
22896208,502
22906217,501
22916258,505
22926296,503
22936306,503
22946345,503
22956383,505
22966391,505
22976431,506
22986469,508
22996477,512
23006518,510
23016552,511
23026556,507
23036590,508
23046626,503
23056633,510
23066675,501
23076716,505
23086754,503
23096764,506
23106805,504
23116848,505
23126859,507
23136901,506
23146943,500
23156951,506
23166988,498
23177023,508
23187029,500
23197068,503
23207106,509
23217112,504
23227148,504
23237188,508
23247200,510
23257244,504
23267288,508
23277302,507
23287350,505
23297399,511
23307413,508
23317458,504
23327502,508
23337543,504
23347553,508
23357598,510
23367642,508
23377655,512
23387700,512
23397748,512
23407764,516
23417807,523
23427847,525
23437855,525
23447895,521
23457936,525
23467946,530
23477988,521
23488027,528
23498035,519
23508076,524
23518117,516
23528130,513
23538172,511
23548214,510
23558225,504
23568266,504
23578307,500
23588352,504
23598366,497
23608410,496
23618453,504
23628467,498
23638513,504
23648557,504
23658570,506
23668613,502
23678656,504
23688666,507
23698708,512
23708754,506
23718770,511
23728816,512
23738858,509
23748870,508
23758911,507
23768953,503
23778963,504
23789001,507
23799044,508
23809056,508
23819103,500
23829152,507
23839200,507
23849217,509
23859265,505
23869311,507
23879325,500
23889369,503
23899413,507
23909421,506
23919456,505
23929494,503
23939504,508
23949543,508
23959583,506
23969593,500
23979634,504
23989675,509
23999685,500
24009725,502
24019763,506
24029772,508
24039811,501
24049851,506
24059858,504
24069895,510
24079930,511
24089937,518
24099974,518
24110009,525
24120043,525
24130049,525
24140086,534
24150122,532
24160128,533
24170167,528
24180209,527
24190217,521
24200256,525
24210295,520
24220305,517
24230345,505
24240385,510
24250394,508
24260432,503
24270468,505
24280474,503
24290514,504
24300556,502
24310563,500
24320604,497
24330644,507
24340684,508
24350690,508
24360726,505
24370764,502
24380771,509
24390808,508
24400848,508
24410858,505
24420897,504
24430938,504
24440950,503
24450993,509
24461033,505
24471043,505
24481081,507
24491120,505
24501127,504
24511166,502
24521207,504
24531216,502
24541257,503
24551299,500
24561311,504
24571353,503
24581388,503
24591399,500
24601440,499
24611479,505
24621520,505
24631529,505
24641569,503
24651610,506
24661620,505
24671663,504
24681705,509
24691716,510
24701753,506
24711793,508
24721809,508
24731857,507
24741903,510
24751919,509
24761967,507
24772013,515
24782032,511
24792080,517
24802125,521
24812143,524
24822187,529
24832229,522
24842242,528
24852282,527
24862322,527
24872358,530
24882367,522
24892406,522
24902444,518
24912452,514
24922497,514
24932539,510
24942549,510
24952589,504
24962632,508
24972644,504
24982685,506
24992727,506
25002735,504
25012773,500
25022812,506
25032820,503
25042862,507
25052903,503
25062912,506
25072956,507
25083001,511
25093017,508
25103065,509
25113108,510
25123149,509
25133161,508
25143205,504
25153248,509
25163260,507
25173300,510
25183339,510
25193349,508
25203392,508
25213435,501
25223447,500
25233486,509
25243530,508
25253546,504
25263593,501
25273641,506
25283654,505
25293697,506
25303737,505
25313747,507
25323788,504
25333831,502
25343840,508
25353881,505
25363924,502
25373966,505
25383979,506
25394021,505
25404063,507
25414076,501
25424117,510
25434161,499
25444171,500
25454211,507
25464251,507
25474262,505
25484304,506
25494343,510
25504353,514
25514394,512
25524435,517
25534446,523
25544489,520
25554531,524
25564539,528
25574582,528
25584623,528
25594663,523
25604674,524
25614719,523
25624763,513
25634772,517
25644811,513
25654848,515
25664852,511
25674890,504
25684931,501
25694945,499
25704992,503
25715037,502
25725052,499
25735097,494
25745142,502
25755153,501
25765193,500
25775232,507
25785242,503
25795280,506
25805317,504
25815324,504
25825363,507
25835399,510
25845408,511
25855448,505
25865490,510
25875534,506
25885549,511
25895592,504
25905634,508
25915643,506
25925685,509
25935723,501
25945729,506
25955769,508
25965807,501
25975818,505
25985860,505
25995898,500
26005908,508
26015950,504
26025992,500
26036002,500
26046045,509
26056086,499
26066092,505
26076132,499
26086176,504
26096190,507
26106234,505
26116276,502
26126316,503
26136323,502
26146357,503
26156398,504
26166409,502
26176450,506
26186491,506
26196501,503
26206544,504
26216592,507
26226605,506
26236646,510
26246689,521
26256699,522
26266746,526
26276789,520
26286803,523
26296846,526
26306891,520
26316902,528
26326945,529
26336989,524
26347036,520
26357051,518
26367097,516
26377141,507
26387157,513
26397203,510
26407249,508
26417264,505
26427310,506
26437358,504
26447373,500
26457418,507
26467463,505
26477477,504
26487514,510
26497553,501
26507565,504
26517608,502
26527656,508
26537670,503
26547710,502
26557752,506
26567765,511
26577807,509
26587852,509
26597895,508
26607911,503
26617953,508
26627994,503
26638005,503
26648046,508
26658090,505
26668105,506
26678149,507
26688194,501
26698210,501
26708249,509
26718288,504
26728296,504
26738336,505
26748378,506
26758389,505
26768432,502
26778474,500
26788486,502
26798528,499
26808570,509
26818582,510
26828628,508
26838673,500
26848687,507
26858731,507
26868771,508
26878813,506
26888828,504
26898877,510
26908926,502
26918944,507
26928990,509
26939034,513
26949048,515
26959092,520
26969135,515
26979148,522
26989193,525
26999239,528
27009257,531
27019304,529
27029351,533
27039366,529
27049410,520
27059454,521
27069466,521
27079510,520
27089556,520
27099568,511
27109608,509
27119650,510
27129696,506
27139710,505
27149753,504
27159797,497
27169811,506
27179860,506
27189910,498
27199925,508
27209968,505
27220013,508
27230030,505
27240073,506
27250118,508
27260134,508
27270179,509
27280223,512
27290237,507
27300279,509
27310320,510
27320337,503
27330383,507
27340424,507
27350468,511
27360479,508
27370524,508
27380569,501
27390583,502
27400625,508
27410666,506
27420674,509
27430717,507
27440762,503
27450774,504
27460816,507
27470858,506
27480872,498
27490914,504
27500955,502
27510966,507
27521010,507
27531053,507
27541067,509
27551108,508
27561148,508
27571159,508
27581200,509
27591243,504
27601280,503
27611287,505
27621327,503
27631367,507
27641377,508
27651416,508
27661455,506
27671461,506
27681500,513
27691539,518
27701549,519
27711593,524
27721635,526
27731647,533
27741690,528
27751734,536
27761746,527
27771789,531
27781832,528
27791843,523
27801887,521
27811925,521
27821934,509
27831975,514
27842014,505
27852024,509
27862064,508
27872104,506
27882145,507
27892156,498
27902199,501
27912240,504
27922252,502
27932293,503
27942333,502
27952345,504
27962388,504
27972431,504
27982445,507
27992487,510
28002530,510
28012540,508
28022584,509
28032625,507
28042638,509
28052683,512
28062730,508
28072744,511
28082787,508
28092829,507
28102842,510
28112884,505
28122925,509
28132964,508
28142975,508
28153018,508
28163058,506
28173070,505
28183116,507
28193159,506
28203174,501
28213219,506
28223261,505
28233273,504
28243318,505
28253361,502
28263372,501
28273416,505
28283461,502
28293476,501
28303518,506
28313562,501
28323572,501
28333614,504
28343654,502
28353664,502
28363707,502
28373751,503
28383798,506
28393813,500
28403858,503
28413903,507
28423917,510
28433960,514
28443998,519
28454012,519
28464058,519
28474103,529
28484118,528
28494163,528
28504212,526
28514229,528
28524274,523
28534316,521
28544328,518
28554375,512
28564418,513
28574431,509
28584477,510
28594519,505
28604530,508
28614573,505
28624618,502
28634664,504
28644677,500
28654719,506
28664764,505
28674779,507
28684828,498
28694875,507
28704889,504
28714936,508
28724982,507
28734998,504
28745045,510
28755091,504
28765101,511
28775145,511
28785192,508
28795205,503
28805254,505
28815303,509
28825322,509
28835368,509
28845416,507
28855433,502
28865479,508
28875524,507
28885571,508
28895591,507
28905640,503
28915685,501
28925705,507
28935753,505
28945801,507
28955817,507
28965862,504
28975906,509
28985921,506
28995970,509
29006020,508
29016040,510
29026089,510
29036138,508
29046159,510
29056208,510
29066255,509
29076270,509
29086315,509
29096362,508
29106410,508
29116426,509
29126471,510
29136520,521
29146535,520
29156580,516
29166626,522
29176642,528
29186686,529
29196726,530
29206739,523
29216787,523
29226832,517
29236847,519
29246894,516
29256942,512
29266958,506
29277005,509
29287050,508
29297065,506
29307114,504
29317161,505
29327175,503
29337220,503
29347266,501
29357314,505
29367328,502
29377373,503
29387416,507
29397430,507
29407474,505
29417517,505
29427535,506
29437582,511
29447627,510
29457643,512
29467686,509
29477730,509
29487745,508
29497788,509
29507832,505
29517847,506
29527892,509
29537937,509
29547953,505
29557995,509
29568042,508
29578059,502
29588105,507
29598150,509
29608164,508
29618212,506
29628258,508
29638304,507
29648313,507
29658357,507
29668400,507
29678416,503
29688460,506
29698503,510
29708513,508
29718557,509
29728603,505
29738617,502
29748657,500
29758701,503
29768715,505
29778757,506
29788800,505
29798813,509
29808860,510
29818901,516
29828913,516
29838955,523
29848995,524
29859036,529
29869046,532
29879089,531
29889131,526
29899142,530
29909184,524
29919229,523
29929247,520
29939295,518
29949339,515
29959353,515
29969394,508
29979437,511
29989452,505
29999501,508
30009546,507
30019562,505
30029609,501
30039658,509
30049674,508
30059720,508
30069768,501
30079785,503
30089833,505
30099880,508
30109928,508
30119943,506
30129989,503
30140033,511
30150049,511
30160097,506
30170143,504
30180157,508
30190201,506
30200247,501
30210263,507
30220309,507
30230354,508
30240372,506
30250419,503
30260464,504
30270476,508
30280517,505
30290560,503
30300573,502
30310619,500
30320667,504
30330685,505
30340732,502
30350782,507
30360832,502
30370851,505
30380902,505
30390952,501
30400966,507
30411010,506
30421058,505
30431075,502
30441120,505
30451165,505
30461179,506
30471223,500
30481272,508
30491292,501
30501340,506
30511386,514
30521405,512
30531454,518
30541502,523
30551518,523
30561565,528
30571610,523
30581628,531
30591678,530
30601727,530
30611744,526
30621792,524
30631840,521
30641889,515
30651906,510
30661953,507
30672001,509
30682019,507
30692067,505
30702113,505
30712129,498
30722175,504
30732220,496
30742234,500
30752279,503
30762328,500
30772345,499
30782391,503
30792441,508
30802456,510
30812507,507
30822556,505
30832571,513
30842618,509
30852666,504
30862686,512
30872743,503
30882798,508
30892849,507
30902868,505
30912920,506
30922971,500
30932993,496
30943046,507
30953103,505
30963124,502
30973175,499
30983223,508
30993235,499
31003278,505
31013324,503
31023336,509
31033378,508
31043422,501
31053436,508
31063485,509
31073528,510
31083543,511
31093589,510
31103633,504
31113649,502
31123695,505
31133746,510
31143799,509
31153813,507
31163855,506
31173897,508
31183907,505
31193950,503
31203991,505
31214001,506
31224043,511
31234085,504
31244100,510
31254144,513
31264189,512
31274204,516
31284249,520
31294293,525
31304306,527
31314346,524
31324391,524
31334404,517
31344447,523
31354491,521
31364505,516
31374547,515
31384594,514
31394637,512
31404649,508
31414689,505
31424733,507
31434748,503
31444793,507
31454840,508
31464856,501
31474900,505
31484943,508
31494955,507
31505006,506
31515056,507
31525078,511
31535130,506
31545184,510
31555205,504
31565257,507
31575306,507
31585325,510
31595374,503
31605418,507
31615430,510
31625473,501
31635522,511
31645566,507
31655577,501
31665618,502
31675662,505
31685674,499
31695719,500
31705766,505
31715783,504
31725834,504
31735886,508
31745909,507
31755964,504
31766015,505
31776030,508
31786078,503
31796128,508
31806145,508
31816194,499
31826244,508
31836263,507
31846313,500
31856361,512
31866414,508
31876438,506
31886494,504
31896545,506
31906562,504
31916615,511
31926667,508
31936685,508
31946735,503
31956784,507
31966800,507
31976850,517
31986899,521
31996919,525
32006971,529
32017023,530
32027042,531
32037090,532
32047137,529
32057156,527
32067204,531
32077255,527
32087276,523
32097327,523
32107377,518
32117399,513
32127450,514
32137501,508
32147550,505
32157572,505
32167624,507
32177676,505
32187696,503
32197744,502
32207793,501
32217808,504
32227855,505
32237903,501
32247920,501
32257968,509
32268020,507
32278038,510
32288088,510
32298139,508
32308161,508
32318209,510
32328261,507
32338283,507
32348334,506
32358384,506
32368432,507
32378450,506
32388497,503
32398543,503
32408558,507
32418608,506
32428654,502
32438672,511
32448722,502
32458770,505
32468785,507
32478831,502
32488879,502
32498894,506
32508941,505
32518989,506
32529009,507
32539059,503
32549108,501
32559126,502
32569177,511
32579230,505
32589253,507
32599309,509
32609363,507
32619387,503
32629443,508
32639493,508
32649542,510
32659560,503
32669607,506
32679654,506
32689671,510
32699718,511
32709765,512
32719783,520
32729835,521
32739888,523
32749911,526
32759966,530
32770023,527
32780047,533
32790101,530
32800152,521
32810173,524
32820228,520
32830284,518
32840308,513
32850361,511
32860416,508
32870441,505
32880496,506
32890552,507
32900606,499
32910631,504
32920688,502
32930745,504
32940771,505
32950825,506
32960881,508
32970904,504
32980959,500
32991012,509
33001036,507
33011089,508
33021146,501
33031175,507
33041230,503
33051279,512
33061299,508
33071350,511
33081399,508
33091418,504
33101469,508
33111520,500
33121541,510
33131591,499
33141642,506
33151692,499
33161709,500
33171760,508
33181813,508
33191831,505
33201879,504
33211927,508
33221945,507
33231995,504
33242041,507
33252055,505
33262102,509
33272152,504
33282175,505
33292227,504
33302280,499
33312302,509
33322356,502
33332408,506
33342429,502
33352483,508
33362535,504
33372587,503
33382612,503
33392666,509
33402718,506
33412742,505
33422800,511
33432856,508
33442883,508
33452936,510
33462989,516
33473012,518
33483067,520
33493120,523
33503144,523
33513196,521
33523250,525
33533275,524
33543331,522
33553388,522
33563416,524
33573475,519
33583533,516
33593560,511
33603617,514
33613673,512
33623699,513
33633755,506
33643813,509
33653873,506
33663899,505
33673954,508
33684008,501
33694034,505
33704092,503
33714148,506
33724174,500
33734229,511
33744287,506
33754309,512
33764363,511
33774418,513
33784440,512
33794494,509
33804548,511
33814573,513
33824626,504
33834681,510
33844699,512
33854753,507
33864804,505
33874856,506
33884882,507
33894937,507
33904991,509
33915013,508
33925060,501
33935111,509
33945133,506
33955184,505
33965233,507
33975250,507
33985301,510
33995353,509
34005372,504
34015423,509
34025477,500
34035500,506
34045551,505
34055600,502
34065616,510
34075664,510
34085708,510
34095723,505
34105768,506
34115816,508
34125833,510
34135881,508
34145930,511
34155979,510
34165997,514
34176045,516
34186097,521
34196116,527
34206166,525
34216215,531
34226233,527
34236281,530
34246326,530
34256340,529
34266384,522
34276430,520
34286446,518
34296494,518
34306539,510
34316554,507
34326599,510
34336647,503
34346664,503
34356712,506
34366762,503
34376781,499
34386829,504
34396880,506
34406928,507
34416945,505
34426995,501
34437043,504
34447061,505
34457109,503
34467155,506
34477169,506
34487215,506
34497265,507
34507283,502
34517332,508
34527377,509
34537393,508
34547438,504
34557483,510
34567502,505
34577551,506
34587599,500
34597618,507
34607666,503
34617715,505
34627733,506
34637780,504
34647830,507
34657881,505
34667901,502
34677952,508
34688002,503
34698022,503
34708071,503
34718125,508
34728148,506
34738200,508
34748248,508
34758270,505
34768329,506
34778380,507
34788398,506
34798448,505
34808499,502
34818520,508
34828572,506
34838627,504
34848647,505
34858699,505
34868751,510
34878773,516
34888826,517
34898877,517
34908927,526
34918944,529
34928992,529
34939040,532
34949054,533
34959099,528
34969146,532
34979164,530
34989214,526
34999265,518
35009286,515
35019339,515
35029390,509
35039411,509
35049459,506
35059507,507
35069524,502
35079571,500
35089618,499
35099637,500
35109688,501
35119741,496
35129762,507
35139811,503
35149859,503
35159905,503
35169926,511
35179976,507
35190027,508
35200050,509
35210102,509
35220157,503
35230179,508
35240231,510
35250283,507
35260303,508
35270353,512
35280405,505
35290425,509
35300474,501
35310525,511
35320543,510
35330595,505
35340648,508
35350671,507
35360724,505
35370777,505
35380801,503
35390854,510
35400907,509
35410960,504
35420977,499
35431024,508
35441071,505
35451091,506
35461141,501
35471194,503
35481215,503
35491266,503
35501319,503
35511340,503
35521394,499
35531442,506
35541461,508
35551511,505
35561561,508
35571581,504
35581634,506
35591688,508
35601704,516
35611751,519
35621802,522
35631825,518
35641878,531
35651928,532
35661978,534
35672004,529
35682057,531
35692111,525
35702134,525
35712189,524
35722244,518
35732269,520
35742325,517
35752378,510
35762400,512
35772450,508
35782504,509
35792528,504
35802588,504
35812651,508
35822683,504
35832743,501
35842803,497
35852831,505
35862890,503
35872950,509
35882981,499
35893042,507
35903103,501
35913162,505
35923190,502
35933243,501
35943297,504
35953320,509
35963374,503
35973429,505
35983448,504
35993501,510
36003550,507
36013569,505
36023620,508
36033672,504
36043694,502
36053747,507
36063800,504
36073822,503
36083872,504
36093922,507
36103944,499
36113993,500
36124041,508
36134089,508
36144107,504
36154159,503
36164211,506
36174227,506
36184278,508
36194328,505
36204352,501
36214409,508
36224459,507
36234482,508
36244535,510
36254596,505
36264624,509
36274680,501
36284731,505
36294753,505
36304807,506
36314861,509
36324880,505
36334932,511
36344984,513
36355005,520
36365057,524
36375107,527
36385155,530
36395172,528
36405220,531
36415271,531
36425291,529
36435340,524
36445389,523
36455409,521
36465460,519
36475513,516
36485535,511
36495587,506
36505637,507
36515657,505
36525706,503
36535754,503
36545774,496
36555823,498
36565874,497
36575893,501
36585941,504
36595991,503
36606013,501
36616065,504
36626114,504
36636166,509
36646190,505
36656244,511
36666298,506
36676321,508
36686373,506
36696427,512
36706448,504
36716500,505
36726552,503
36736575,500
36746629,501
36756682,509
36766698,508
36776748,503
36786801,509
36796823,510
36806876,504
36816931,503
36826958,507
36837015,504
36847071,507
36857096,508
36867152,502
36877206,503
36887257,508
36897278,502
36907331,508
36917382,506
36927404,499
36937457,509
36947507,511
36957528,504
36967583,509
36977637,498
36987658,502
36997712,504
37007772,505
37017798,504
37027849,499
37037901,503
37047923,504
37057976,503
37068025,510
37078046,510
37088098,514
37098151,513
37108172,522
37118223,520
37128272,529
37138319,533
37148341,526
37158395,526
37168446,523
37178466,523
37188516,521
37198568,520
37208592,517
37218646,515
37228701,507
37238723,505
37248775,508
37258827,505
37268851,501
37278906,504
37288960,504
37298983,503
37309036,495
37319086,502
37329104,506
37339152,500
37349203,505
37359225,505
37369277,506
37379327,511
37389378,506
37399401,507
37409453,507
37419506,505
37429527,510
37439579,507
37449627,504
37459645,505
37469693,506
37479743,506
37489765,508
37499815,508
37509867,506
37519891,508
37529947,503
37540004,505
37550030,502
37560086,499
37570141,502
37580161,502
37590211,502
37600259,501
37610280,505
37620330,506
37630380,503
37640431,506
37650451,504
37660502,508
37670552,507
37680573,504
37690621,500
37700671,508
37710689,508
37720740,508
37730792,507
37740809,505
37750863,504
37760916,506
37770936,505
37780990,510
37791043,514
37801063,519
37811114,517
37821165,526
37831185,523
37841235,520
37851287,530
37861308,527
37871360,528
37881417,524
37891440,523
37901497,519
37911556,510
37921616,512
37931641,507
37941696,505
37951754,508
37961779,508
37971836,503
37981886,504
37991907,502
38001958,505
38012010,500
38022035,505
38032091,507
38042147,504
38052172,510
38062227,506
38072279,505
38082298,508
38092347,506
38102398,507
38112420,512
38122471,505
38132524,506
38142575,511
38152596,509
38162647,507
38172701,510
38182728,508
38192785,509
38202841,501
38212864,503
38222921,507
38232978,501
38243002,507
38253055,506
38263107,501
38273129,503
38283185,506
38293239,500
38303260,509
38313313,504
38323365,509
38333387,506
38343441,503
38353490,508
38363510,503
38373560,504
38383611,509
38393632,503
38403682,510
38413732,508
38423781,501
38433800,503
38443845,510
38453891,512
38463906,512
38473955,518
38484005,520
38494024,527
38504069,529
38514114,525
38524131,527
38534182,525
38544230,527
38554250,525
38564297,524
38574343,516
38584362,518
38594412,515
38604461,512
38614480,509
38624528,505
38634576,503
38644596,505
38654647,508
38664700,500
38674754,508
38684773,500
38694825,504
38704876,503
38714894,504
38724947,505
38734996,504
38745018,508
38755070,509
38765124,509
38775146,509
38785197,509
38795246,507
38805263,511
38815312,509
38825363,509
38835381,510
38845430,502
38855479,505
38865500,510
38875551,510
38885601,503
38895653,506
38905673,509
38915723,506
38925772,506
38935793,499
38945843,508
38955894,500
38965914,507
38975964,506
38986015,504
38996036,504
39006086,502
39016137,509
39026156,506
39036208,507
39046260,504
39056281,506
39066335,507
39076391,509
39086415,506
39096466,508
39106521,507
39116542,504
39126592,518
39136644,514
39146663,526
39156710,523
39166758,528
39176809,526
39186830,532
39196877,525
39206924,530
39216940,528
39226993,523
39237044,520
39247065,518
39257116,516
39267166,512
39277186,512
39287238,503
39297288,511
39307309,507
39317358,508
39327408,506
39337426,505
39347476,506
39357525,503
39367544,506
39377594,504
39387646,499
39397668,506
39407719,507
39417771,507
39427822,510
39437839,506
39447890,512
39457941,505
39467960,506
39478011,505
39488061,501
39498083,502
39508136,507
39518183,508
39528202,507
39538248,503
39548295,508
39558311,504
39568359,503
39578405,506
39588424,508
39598473,505
39608521,508
39618535,506
39628580,507
39638630,505
39648648,509
39658700,501
39668753,507
39678806,505
39688825,503
39698877,507
39708929,508
39718952,503
39729004,504
39739058,505
39749078,503
39759130,501
39769187,504
39779212,508
39789266,513
39799321,504
39809347,516
39819402,518
39829453,521
39839474,526
39849523,520
39859576,528
39869602,528
39879657,525
39889709,530
39899763,519
39909786,516
39919840,525
39929894,519
39939916,515
39949967,511
39960018,506
39970036,512
39980086,507
39990138,508
40000158,499
40010211,506
40020266,501
40030288,498
40040342,501
40050395,508
40060417,504
40070469,507
40080522,504
40090543,503
40100595,500
40110647,504
40120668,511
40130721,508
40140774,506
40150794,506
40160845,505
40170895,507
40180946,502
40190969,511
40201022,508
40211077,505
40221101,503
40231150,508
40241201,500
40251225,506
40261279,502
40271331,507
40281353,507
40291403,507
40301455,502
40311478,510
40321528,503
40331579,505
40341597,509
40351646,503
40361693,509
40371712,501
40381760,503
40391809,504
40401826,506
40411873,508
40421919,507
40431963,505
40441977,504
40452023,508
40462069,507
40472084,509
40482127,508
40492172,512
40502189,518
40512238,520
40522286,517
40532304,524
40542354,527
40552402,522
40562422,521
40572473,525
40582523,518
40592545,521
40602596,522
40612646,518
40622663,510
40632714,512
40642763,510
40652811,506
40662833,504
40672887,500
40682937,504
40692957,500
40703007,502
40713061,504
40723084,505
40733139,501
40743193,505
40753214,500
40763268,506
40773321,508
40783340,507
40793393,504
40803444,510
40813463,507
40823514,509
40833568,505
40843594,510
40853652,507
40863709,508
40873736,507
40883795,501
40893850,510
40903901,510
40913921,507
40923971,508
40934020,509
40944039,510
40954089,509
40964136,510
40974154,505
40984203,511
40994249,508
41004264,511
41014308,503
41024353,507
41034367,507
41044414,504
41054459,505
41064473,502
41074517,503
41084563,507
41094577,503
41104621,507
41114666,499
41124678,507
41134723,505
41144765,506
41154808,510
41164824,513
41174869,513
41184915,517
41194931,521
41204979,519
41215024,524
41225041,521
41235087,518
41245136,517
41255154,524
41265202,518
41275249,515
41285263,513
41295310,516
41305357,505
41315372,505
41325421,508
41335470,507
41345488,500
41355535,501
41365579,500
41375592,504
41385642,506
41395693,502
41405741,499
41415759,506
41425809,508
41435857,509
41445874,510
41455922,505
41465971,510
41475987,511
41486036,505
41496086,508
41506104,510
41516154,507
41526204,509
41536222,510
41546273,508
41556320,509
41566337,507
41576384,508
41586431,509
41596449,503
41606497,501
41616547,508
41626569,507
41636624,508
41646679,509
41656730,510
41666752,507
41676803,505
41686853,506
41696874,501
41706924,502
41716976,507
41727001,507
41737057,510
41747113,507
41757141,509
41767198,510
41777253,511
41787279,517
41797335,518
41807391,518
41817414,524
41827467,524
41837520,529
41847539,525
41857587,0
41867637,316
41877657,369
41887707,424
41897757,469
41907810,511
41917831,541
41927880,558
41937932,573
41947951,583
41958001,589
41968051,585
41978070,583
41988114,571
41998160,563
42008178,551
42018228,540
42028278,531
42038296,517
42048348,519
42058400,509
42068418,503
42078466,502
42088514,496
42098526,494
42108574,497
42118619,499
42128637,499
42138685,491
42148734,497
42158784,500
42168803,498
42178851,502
42188902,504
42198924,499
42208977,504
42219031,503
42229052,506
42239104,507
42249158,505
42259177,504
42269226,507
42279276,511
42289295,509
42299345,502
42309398,508
42319418,509
42329467,503
42339516,506
42349534,507
42359585,506
42369635,506
42379657,508
42389710,506
42399761,508
42409779,510
42419831,515
42429883,515
42439934,517
42449955,522
42460007,528
42470059,523
42480079,528
42490131,525
42500181,531
42510199,520
42520251,526
42530297,524
42540313,521
42550364,520
42560416,517
42570439,517
42580491,510
42590541,510
42600559,508
42610605,506
42620652,506
42630670,502
42640718,507
42650770,498
42660823,505
42670842,501
42680894,505
42690946,504
42700971,506
42711026,508
42721083,510
42731110,512
42741166,511
42751222,505
42761247,512
42771305,503
42781363,507
42791391,504
42801445,508
42811500,508
42821525,506
42831576,509
42841626,502
42851646,509
42861697,502
42871747,506
42881768,509
42891820,501
42901872,504
42911891,501
42921940,501
42931986,503
42942035,502
42952055,503
42962105,505
42972156,501
42982174,507
42992225,504
43002274,503
43012293,508
43022343,508
43032395,510
43042415,505
43052466,509
43062516,512
43072535,513
43082581,513
43092627,514
43102642,517
43112688,518
43122732,526
43132746,523
43142792,527
43152837,528
43162884,528
43172896,521
43182938,522
43192984,520
43202999,519
43213046,509
43223093,516
43233110,511
43243157,503
43253206,507
43263226,505
43273277,502
43283323,498
43293340,501
43303388,500
43313434,499
43323451,500
43333501,504
43343549,504
43353566,505
43363616,503
43373666,502
43383686,501
43393734,502
43403783,508
43413831,510
43423850,510
43433902,508
43443948,506
43453964,509
43464010,504
43474057,505
43484074,504
43494120,504
43504167,505
43514182,497
43524229,504
43534281,504
43544302,500
43554351,504
43564398,500
43574417,505
43584465,504
43594511,506
43604525,504
43614574,505
43624621,498
43634637,505
43644684,506
43654731,509
43664777,506
43674792,503
43684838,508
43694884,503
43704898,506
43714941,500
43724984,507
43734995,499
43745040,507
43755087,509
43765100,505
43775142,513
43785182,514
43795190,516
43805229,523
43815274,521
43825289,526
43835330,527
43845372,524
43855384,523
43865427,525
43875471,526
43885485,520
43895530,520
43905576,517
43915620,520
43925631,517
43935672,508
43945714,513
43955728,508
43965770,506
43975813,499
43985826,503
43995870,500
44005914,504
44015927,507
44025971,506
44036014,507
44046029,497
44056072,499
44066116,506
44076131,500
44086175,506
44096219,506
44106231,500
44116277,509
44126319,503
44136334,508
44146377,507
44156420,505
44166433,506
44176476,499
44186519,505
44196559,504
44206572,506
44216617,502
44226664,502
44236679,500
44246728,500
44256775,505
44266795,503
44276839,504
44286882,502
44296899,503
44306946,505
44316994,507
44327010,502
44337059,510
44347106,500
44357123,507
44367168,488
44377214,511
44387231,507
44397279,509
44407329,501
44417344,504
44427388,510
44437432,507
44447474,502
44457486,501
44467533,510
44477579,507
44487589,510
44497630,502
44507672,508
44517685,510
44527732,512
44537780,516
44547793,512
44557836,519
44567879,518
44577896,522
44587943,523
44597991,523
44608007,519
44618054,519
44628098,512
44638112,519
44648157,515
44658200,512
44668214,508
44678259,510
44688301,507
44698344,506
44708357,505
44718402,510
44728447,499
44738460,506
44748504,509
44758548,505
44768563,507
44778607,508
44788653,511
44798668,508
44808713,510
44818759,509
44828774,510
44838820,511
44848870,514
44858887,514
44868934,508
44878981,511
44889001,510
44899051,504
44909101,505
44919152,510
44929171,505
44939221,512
44949272,512
44959290,504
44969339,506
44979386,510
44989403,508
44999450,510
45009497,512
45019514,506
45029562,508
45039610,504
45049626,504
45059670,505
45069716,508
45079731,511
45089777,511
45099824,514
45109839,509
45119886,508
45129932,512
45139947,509
45149992,507
45160038,507
45170054,511
45180100,513
45190146,510
45200194,517
45210210,521
45220257,519
45230302,522
45240316,522
45250360,528
45260406,531
45270423,525
45280468,531
45290514,526
45300532,525
45310586,526
45320637,523
45330656,520
45340711,509
45350764,514
45360786,509
45370839,503
45380897,506
45390923,507
45400977,507
45411031,504
45421058,507
45431115,508
45441174,506
45451232,499
45461260,501
45471319,507
45481378,504
45491406,507
45501466,505
45511523,504
45521549,511
45531602,505
45541653,505
45551673,507
45561726,510
45571777,504
45581797,507
45591848,506
45601898,508
45611919,507
45621969,506
45632017,503
45642034,507
45652084,507
45662135,499
45672155,509
45682205,504
45692256,507
45702305,498
45712321,506
45722369,501
45732418,504
45742437,508
45752486,504
45762536,508
45772554,504
45782601,502
45792647,504
45802665,506
45812712,497
45822760,503
45832778,506
45842825,503
45852874,497
45862894,505
45872946,503
45882998,510
45893016,512
45903064,512
45913113,521
45923162,522
45933180,526
45943228,533
45953276,531
45963294,530
45973345,527
45983392,526
45993402,526
46003442,524
46013479,520
46023489,516
46033532,514
46043574,516
46053584,504
46063627,503
46073668,507
46083680,504
46093724,505
46103772,505
46113788,501
46123838,506
46133888,509
46143904,507
46153947,509
46163991,509
46174032,509
46184043,510
46194086,506
46204129,507
46214141,511
46224181,507
46234222,503
46244233,507
46254272,506
46264310,503
46274320,503
46284360,502
46294401,504
46304409,500
46314444,501
46324481,504
46334490,505
46344530,501
46354572,503
46364583,504
46374627,499
46384668,507
46394675,502
46404717,508
46414759,503
46424770,503
46434811,504
46444852,509
46454894,500
46464904,509
46474943,511
46484982,507
46494991,505
46505033,508
46515073,508
46525080,506
46535116,501
46545156,503
46555164,501
46565200,507
46575238,509
46585246,514
46595285,514
46605321,510
46615327,518
46625364,523
46635400,529
46645409,528
46655445,526
46665480,527
46675486,529
46685523,528
46695559,521
46705598,519
46715604,520
46725642,517
46735679,520
46745687,513
46755724,511
46765762,512
46775770,509
46785808,507
46795842,508
46805846,510
46815885,503
46825921,503
46835927,505
46845964,505
46856001,508
46866006,504
46876042,503
46886078,506
46896082,510
46906116,514
46916149,503
46926150,509
46936183,504
46946217,512
46956251,512
46966257,510
46976295,503
46986332,510
46996341,510
47006380,508
47016421,509
47026428,505
47036464,505
47046500,504
47056507,508
47066545,507
47076582,506
47086588,500
47096625,507
47106662,504
47116668,500
47126705,500
47136737,501
47146740,500
47156777,499
47166813,502
47176848,500
47186851,505
47196885,506
47206919,499
47216926,507
47226962,508
47237000,509
47247005,507
47257044,504
47267083,500
47277093,502
47287132,505
47297171,506
47307177,509
47317215,510
47327255,509
47337265,504
47347307,511
47357345,507
47367354,512
47377391,524
47387428,527
47397435,532
47407472,533
47417513,530
47427523,534
47437564,530
47447603,526
47457641,520
47467651,523
47477689,516
47487730,512
47497738,517
47507776,510
47517814,509
47527823,502
47537864,505
47547904,497
47557916,500
47567956,499
47577996,493
47588005,498
47598044,492
47608080,497
47618088,499
47628127,502
47638168,499
47648176,500
47658216,504
47668251,508
47678290,509
47688300,504
47698339,507
47708378,511
47718385,505
47728423,508
47738460,503
47748467,510
47758505,506
47768545,507
47778552,503
47788592,502
47798632,506
47808636,506
47818679,506
47828721,504
47838732,509
47848772,506
47858813,503
47868822,507
47878865,504
47888907,507
47898920,499
47908962,505
47919002,505
47929015,501
47939055,505
47949093,502
47959133,504
47969144,502
47979184,501
47989227,508
47999238,508
48009281,506
48019327,507
48029343,502
48039386,508
48049431,500
48059446,500
48069491,504
48079533,504
48089548,508
48099596,511
48109642,508
48119654,506
48129698,512
48139739,512
48149753,513
48159798,514
48169841,518
48179884,524
48189897,521
48199938,519
48209980,522
48219992,524
48230032,517
48240076,518
48250088,519
48260131,519
48270180,515
48280201,512
48290252,506
48300301,508
48310317,508
48320360,508
48330405,506
48340419,503
48350459,504
48360500,502
48370513,504
48380556,499
48390598,507
48400608,506
48410645,502
48420681,507
48430687,506
48440723,512
48450760,509
48460797,507
48470806,512
48480846,506
48490883,503
48500891,507
48510933,506
48520975,507
48530980,504
48541018,509
48551056,507
48561060,507
48571099,508
48581136,510
48591141,505
48601182,509
48611222,507
48621232,504
48631269,506
48641307,505
48651316,506
48661355,504
48671393,502
48681397,502
48691434,508
48701472,504
48711511,503
48721520,505
48731561,506
48741600,507
48751609,507
48761645,507
48771681,506
48781688,508
48791723,508
48801757,507
48811762,504
48821798,510
48831834,512
48841840,512
48851875,513
48861906,512
48871910,518
48881945,520
48891981,524
48901988,526
48912023,521
48922058,526
48932090,525
48942092,523
48952127,520
48962160,522
48972164,522
48982199,519
48992232,515
49002237,514
49012272,511
49022308,506
49032311,505
49042342,511
49052374,509
49062374,510
49072409,503
49082442,504
49092446,503
49102482,501
49112518,502
49122526,501
49132563,501
49142601,507
49152607,500
49162643,509
49172679,507
49182714,504
49192721,508
49202756,507
49212790,508
49222794,505
49232830,509
49242865,512
49252872,503
49262909,508
49272944,510
49282950,508
49292986,502
49303023,504
49313029,504
49323065,509
49333099,504
49343102,501
49353138,500
49363177,503
49373184,506
49383222,507
49393260,500
49403265,510
49413298,505
49423335,505
49433343,503
49443379,505
49453416,508
49463454,503
49473462,507
49483499,506
49493536,502
49503545,507
49513584,507
49523619,505
49533624,506
49543659,508
49553694,499
49563698,505
49573734,506
49583769,512
49593774,513
49603812,516
49613852,519
49623860,525
49633900,521
49643936,522
49653937,521
49663974,524
49674009,523
49684015,515
49694052,517
49704090,510
49714129,512
49724136,510
49734173,511
49744211,505
49754220,504
49764262,510
49774305,508
49784310,501
49794344,508
49804381,507
49814389,500
49824429,501
49834469,506
49844478,506
49854515,507
49864555,505
49874568,511
49884610,510
49894649,507
49904656,511
49914695,510
49924737,505
49934776,512
49944783,504
49954821,511
49964861,506
49974871,510
49984910,508
49994949,503
50004953,501
50014989,504
50025028,506
50035041,507
50045084,500
50055128,507
50065140,499
50075184,507
50085226,507
50095235,505
50105276,502
50115318,506
50125331,506
50135374,507
50145415,508
50155425,507
50165465,506
50175504,507
50185547,507
50195558,509
50205600,507
50215644,503
50225657,506
50235698,506
50245740,508
50255752,501
50265790,508
50275829,509
50285840,507
50295881,503
50305919,502
50315924,506
50325966,515
50336008,514
50346021,511
50356062,518
50366107,517
50376120,517
50386163,524
50396206,520
50406218,517
50416262,522
50426306,517
50436321,518
50446364,511
50456406,509
50466450,515
50476461,511
50486504,506
50496546,508
50506554,508
50516593,507
50526633,508
50536640,506
50546678,503
50556719,507
50566727,500
50576767,509
50586808,501
50596817,509
50606858,507
50616898,508
50626910,504
50636950,512
50646989,508
50656996,511
50667037,508
50677076,508
50687085,509
50697125,504
50707168,507
50717208,510
50727219,504
50737259,510
50747299,508
50757308,508
50767348,505
50777391,510
50787402,508
50797440,504
50807478,509
50817487,500
50827527,501
50837565,503
50847573,501
50857613,503
50867650,508
50877661,501
50887702,508
50897744,500
50907756,507
50917797,503
50927839,508
50937851,510
50947892,501
50957933,508
50967975,502
50977987,503
50988030,508
50998070,510
51008079,511
51018122,512
51028161,514
51038168,515
51048209,520
51058249,522
51068260,524
51078304,524
51088346,528
51098359,530
51108402,519
51118445,523
51128452,517
51138492,519
51148532,517
51158541,519
51168579,513
51178621,510
51188632,511
51198676,509
51208717,509
51218759,508
51228770,501
51238811,505
51248853,508
51258863,509
51268903,504
51278948,502
51288961,504
51299000,501
51309042,509
51319054,507
51329095,502
51339137,504
51349153,503
51359198,506
51369245,505
51379262,509
51389304,503
51399352,503
51409367,507
51419412,507
51429457,504
51439471,505
51449517,505
51459563,509
51469607,505
51479621,508
51489666,498
51499711,506
51509726,505
51519773,507
51529817,510
51539830,506
51549876,505
51559924,508
51569938,504
51579983,507
51590024,505
51600035,503
51610074,505
51620112,509
51630122,499
51640164,505
51650202,507
51660212,505
51670257,508
51680302,505
51690317,502
51700360,505
51710404,509
51720449,512
51730463,512
51740507,510
51750551,516
51760560,520
51770601,525
51780643,523
51790653,529
51800696,525
51810743,527
51820755,528
51830797,527
51840839,522
51850851,524
51860890,516
51870929,515
51880938,511
51890977,514
51901020,511
51911030,512
51921071,509
51931111,506
51941122,506
51951162,506
51961203,504
51971243,506
51981254,499
51991296,499
52001337,508
52011347,507
52021380,504
52031409,512
52041407,501
52051435,508
52061463,507
52071462,504
52081494,510
52091526,506
52101530,506
52111565,503
52121599,506
52131605,504
52141639,501
52151671,505
52161675,507
52171711,502
52181745,508
52191752,502
52201788,505
52211824,507
52221862,507
52231868,505
52241903,507
52251939,502
52261942,505
52271976,504
52282007,501
52292008,504
52302046,508
52312085,509
52322093,507
52332129,510
52342164,505
52352169,505
52362206,505
52372242,508
52382246,507
52392278,507
52402315,505
52412320,511
52422355,506
52432390,512
52442392,511
52452425,513
52462457,515
52472490,516
52482495,519
52492532,522
52502569,525
52512572,520
52522603,527
52532634,523
52542637,522
52552671,520
52562707,519
52572715,515
52582751,511
52592788,511
52602794,510
52612832,508
52622870,504
52632876,511
52642914,506
52652951,502
52662955,505
52672991,504
52683029,503
52693062,510
52703065,508
52713099,508
52723131,510
52733135,504
52743171,510
52753209,509
52763216,511
52773261,509
52783306,512
52793321,508
52803361,510
52813397,509
52823403,510
52833435,510
52843469,509
52853471,507
52863507,508
52873542,509
52883548,507
52893583,503
52903620,505
52913627,508
52923664,507
52933703,508
52943709,509
52953744,510
52963782,508
52973819,507
52983822,508
52993857,503
53003892,511
53013898,506
53023936,503
53033976,503
53043983,509
53054021,505
53064060,507
53074066,505
53084105,506
53094144,504
53104149,499
53114185,505
53124224,499
53134231,506
53144271,507
53154310,506
53164316,507
53174353,512
53184390,513
53194429,520
53204437,518
53214477,525
53224517,524
53234523,525
53244563,517
53254602,519
53264611,521
53274648,516
53284689,519
53294699,515
53304739,514
53314781,513
53324788,511
53334826,508
53344862,508
53354869,507
53364907,508
53374945,507
53384950,502
53394987,509
53405026,505
53415031,506
53425066,506
53435102,510
53445138,508
53455144,508
53465180,509
53475217,510
53485222,511
53495259,506
53505299,508
53515307,510
53525348,506
53535387,505
53545397,502
53555438,506
53565479,506
53575486,501
53585523,507
53595556,503
53605564,506
53615602,508
53625640,504
53635645,508
53645682,501
53655723,507
53665730,504
53675769,509
53685811,501
53695819,505
53705854,503
53715894,507
53725936,508
53735946,503
53745985,503
53756024,506
53766031,504
53776071,506
53786110,504
53796118,503
53806157,504
53816200,509
53826210,503
53836250,507
53846288,508
53856295,511
53866335,508
53876375,512
53886383,514
53896423,522
53906464,520
53916474,525
53926513,524
53936552,526
53946561,526
53956600,522
53966636,520
53976674,517
53986680,516
53996718,517
54006753,512
54016760,513
54026799,508
54036838,508
54046847,501
54056885,503
54066927,501
54076938,508
54086978,506
54097021,504
54107033,506
54117076,502
54127119,504
54137128,508
54147165,510
54157202,507
54167207,505
54177246,509
54187284,507
54197290,510
54207329,508
54217366,505
54227404,510
54237409,507
54247445,505
54257482,510
54267489,506
54277530,507
54287570,505
54297580,504
54307616,500
54317650,502
54327655,506
54337690,507
54347728,506
54357736,505
54367775,506
54377816,504
54387825,505
54397862,502
54407899,506
54417908,504
54427947,505
54437984,510
54448023,508
54458029,501
54468061,508
54478096,508
54488104,506
54498143,507
54508186,509
54518199,505
54528244,507
54538288,502
54548302,509
54558347,507
54568393,510
54578410,511
54588460,521
54598503,519
54608513,521
54618555,520
54628594,519
54638605,524
54648643,520
54658682,520
54668691,516
54678728,513
54688764,515
54698769,514
54708807,511
54718843,510
54728876,513
54738878,509
54748913,504
54758950,508
54768958,501
54778995,502
54789032,502
54799039,506
54809079,504
54819120,504
54829127,505
54839162,510
54849199,509
54859206,506
54869244,508
54879285,510
54889291,512
54899328,504
54909361,504
54919361,508
54929395,510
54939430,507
54949467,506
54959472,504
54969508,509
54979541,508
54989546,505
54999585,505
55009624,507
55019633,506
55029673,509
55039709,503
55049719,503
55059756,509
55069795,506
55079802,507
55089839,507
55099873,507
55109872,506
55119908,506
55129944,511
55139950,506
55149989,506
55160027,502
55170036,503
55180074,506
55190110,505
55200116,507
55210150,504
55220188,507
55230226,507
55240234,509
55250272,506
55260311,513
55270317,509
55280352,518
55290386,522
55300392,521
55310427,519
55320463,527
55330469,523
55340508,522
55350547,523
55360552,519
55370586,522
55380620,520
55390624,513
55400659,513
55410691,511
55420694,513
55430725,511
55440758,513
55450759,505
55460792,506
55470825,505
55480853,509
55490852,508
55500886,505
55510921,502
55520927,503
55530965,510
55540999,503
55551001,506
55561035,510
55571068,509
55581070,509
55591106,510
55601140,508
55611146,506
55621179,509
55631211,507
55641215,507
55651245,508
55661275,498
55671276,508
55681311,510
55691346,503
55701379,507
55711382,505
55721414,500
55731448,504
55741449,501
55751481,507
55761515,504
55771520,504
55781554,507
55791588,505
55801594,509
55811630,508
55821667,508
55831672,509
55841706,507
55851739,510
55861743,510
55871777,506
55881808,511
55891812,506
55901845,512
55911877,507
55921882,508
55931917,514
55941953,516
55951988,514
55961992,518
55972031,519
55982071,520
55992081,523
56002122,516
56012165,521
56022176,517
56032218,516
56042253,521
56052256,516
56062291,519
56072325,519
56082329,511
56092365,517
56102397,506
56112396,509
56122432,503
56132469,507
56142478,509
56152515,507
56162552,509
56172558,507
56182592,503
56192629,505
56202633,503
56212672,510
56222712,510
56232751,510
56242758,508
56252794,509
56262830,508
56272838,510
56282877,511
56292913,509
56302923,502
56312961,506
56322993,509
56332997,508
56343034,507
56353071,501
56363079,507
56373116,503
56383150,505
56393156,504
56403193,503
56413234,506
56423239,500
56433278,508
56443313,509
56453350,508
56463357,503
56473397,509
56483437,501
56493447,506
56503488,507
56513524,506
56523532,503
56533572,509
56543610,509
56553614,510
56563651,512
56573687,518
56583696,518
56593736,525
56603775,522
56613782,523
56623821,530
56633860,524
56643866,529
56653903,527
56663939,524
56673948,530
56683987,523
56694026,521
56704063,513
56714069,515
56724108,515
56734147,516
56744153,510
56754190,507
56764229,504
56774238,509
56784277,507
56794316,505
56804324,505
56814361,508
56824397,503
56834406,507
56844445,505
56854485,506
56864494,505
56874530,509
56884570,507
56894579,508
56904621,502
56914661,509
56924672,504
56934714,502
56944756,507
56954798,504
56964812,504
56974856,501
56984896,499
56994908,508
57004949,506
57014987,505
57024996,499
57035034,507
57045075,502
57055085,504
57065118,507
57075152,503
57085159,498
57095198,499
57105235,501
57115242,505
57125281,502
57135318,502
57145322,506
57155354,508
57165391,504
57175399,501
57185436,501
57195473,503
57205515,512
57215525,513
57225567,516
57235609,517
57245618,521
57255655,518
57265695,519
57275711,524
57285758,525
57295800,526
57305815,527
57315859,529
57325901,528
57335916,516
57345964,524
57356008,520
57366013,512
57376050,516
57386083,513
57396087,512
57406121,507
57416157,507
57426163,506
57436199,507
57446234,505
57456268,504
57466272,499
57476307,504
57486342,506
57496344,502
57506378,511
57516409,503
57526413,508
57536446,510
57546480,509
57556484,512
57566515,510
57576544,508
57586545,506
57596577,510
57606612,503
57616613,508
57626641,510
57636669,507
57646666,511
57656700,506
57666734,499
57676736,510
57686769,501
57696800,503
57706831,506
57716834,502
57726868,504
57736900,501
57746905,503
57756940,500
57766975,508
57776978,507
57787010,499
57797041,500
57807044,500
57817076,502
57827111,499
57837116,509
57847154,504
57857193,505
57867200,506
57877237,506
57887275,508
57897280,512
57907308,511
57917339,521
57927342,525
57937374,525
57947408,528
57957413,525
57967449,529
57977482,529
57987514,522
57997516,521
58007550,523
58017582,524
58027583,521
58037615,515
58047649,516
58057653,517
58067686,510
58077719,510
58087722,508
58097756,509
58107790,507
58117791,508
58127825,503
58137859,506
58147862,508
58157896,503
58167931,507
58177937,500
58187971,504
58198009,508
58208013,512
58218047,509
58228080,507
58238114,512
58248116,506
58258149,511
58268182,506
58278185,508
58288219,509
58298255,508
58308260,510
58318294,505
58328326,508
58338331,508
58348367,508
58358403,508
58368406,506
58378441,507
58388474,507
58398477,507
58408514,502
58418549,509
58428546,505
58438577,505
58448605,509
58458606,508
58468638,507
58478672,508
58488702,505
58498699,504
58508731,503
58518761,503
58528759,505
58538790,504
58548824,501
58558825,510
58568856,500
58578882,507
58588878,510
58598907,512
58608933,516
58618932,515
58628959,513
58638988,521
58648988,528
58659020,528
58669052,533
58679056,530
58689091,530
58699123,531
58709156,529
58719154,519
58729185,523
58739216,520
58749221,516
58759255,518
58769290,509
58779292,508
58789323,509
58799355,505
58809357,504
58819392,505
58829427,498
58839431,500
58849462,505
58859494,507
58869496,508
58879532,500
58889570,503
58899575,506
58909614,505
58919650,506
58929656,505
58939693,501
58949730,507
58959768,505
58969776,512
58979815,506
58989855,511
58999866,509
59009906,508
59019946,511
59029954,504
59039995,502
59050035,506
59060042,507
59070081,505
59080121,505
59090127,502
59100164,505
59110202,506
59120205,505
59130239,508
59140276,508
59150281,509
59160318,508
59170357,499
59180360,501
59190399,504
59200436,507
59210444,506
59220484,505
59230526,504
59240562,504
59250565,505
59260603,499
59270639,506
59280646,503
59290682,504
59300722,510
59310731,508
59320767,507
59330803,502
59340811,508
59350846,509
59360883,509
59370887,512
59380923,517
59390961,516
59400968,523
59411006,529
59421040,529
59431047,530
59441087,526
59451125,532
59461164,529
59471170,525
59481208,529
59491245,523
59501251,517
59511289,516
59521331,514
59531342,515
59541382,512
59551421,511
59561432,508
59571470,508
59581511,508
59591516,501
59601552,504
59611589,503
59621590,503
59631623,499
59641657,505
59651662,506
59661697,507
59671729,502
59681732,500
59691766,503
59701800,508
59711805,503
59721840,503
59731874,505
59741908,508
59751912,505
59761947,501
59771982,503
59781987,507
59792021,504
59802057,504
59812061,506
59822097,505
59832134,504
59842138,500
59852169,504
59862201,505
59872206,501
59882242,509
59892276,506
59902280,510
59912313,508
59922344,507
59932347,503
59942379,509
59952411,509
59962443,500
59972445,501
59982482,507
59992517,508
60002520,507
60012557,507
60022591,502
60032592,503
60042625,503
60052659,506
60062662,509
60072698,508
60082733,508
60092737,506
60102771,508
60112807,505
60122814,507
60132849,508
60142881,511
60152882,515
60162916,516
60172950,519
60182956,524
60192988,528
60203023,532
60213030,535
60223066,529
60233103,526
60243142,529
60253147,527
60263184,527
60273221,516
60283230,520
60293268,515
60303308,518
60313317,512
60323360,514
60333400,513
60343408,509
60353447,505
60363486,504
60373496,504
60383537,501
60393576,507
60403586,504
60413628,499
60423668,504
60433679,503
60443719,504
60453760,504
60463801,506
60473810,500
60483848,506
60493888,501
60503898,508
60513940,507
60523977,510
60533981,510
60544017,507
60554051,501
60564055,503
60574093,506
60584130,504
60594135,509
60604173,505
60614212,506
60624223,503
60634262,507
60644300,501
60654305,504
60664341,503
60674378,499
60684386,508
60694422,507
60704458,506
60714464,504
60724496,510
60734531,508
60744566,504
60754572,506
60764608,510
60774645,503
60784649,503
60794685,507
60804721,510
60814727,509
60824766,505
60834803,508
60844810,513
60854845,505
60864880,515
60874886,517
60884922,518
60894955,521
60904957,525
60914990,529
60925023,525
60935028,524
60945059,531
60955091,524
60965094,529
60975129,525
60985166,526
60995205,524
61005211,519
61015249,516
61025285,509
61035293,512
61045332,508
61055370,507
61065373,503
61075409,504
61085446,504
61095451,504
61105483,506
61115517,507
61125521,498
61135554,504
61145590,499
61155592,507
61165621,503
61175656,501
61185661,507
61195698,507
61205732,505
61215769,504
61225782,500
61235823,508
61245857,501
61255862,499
61265896,502
61275928,503
61285932,499
61295969,500
61306008,506
61316011,506
61326044,497
61336077,501
61346079,503
61356112,500
61366144,501
61376150,505
61386188,503
61396223,506
61406227,501
61416263,506
61426297,508
61436301,508
61446332,503
61456362,507
61466396,505
61476399,507
61486432,508
61496465,506
61506465,503
61516499,504
61526533,506
61536539,506
61546571,504
61556603,507
61566604,515
61576638,523
61586671,525
61596673,531
61606705,531
61616739,530
61626740,533
61636774,532
61646811,526
61656816,526
61666850,523
61676886,519
61686890,519
61696923,511
61706958,515
61716962,513
61726995,512
61737024,507
61747050,508
61757050,505
61767081,498
61777111,497
61787104,503
61797131,504
61807160,500
61817160,501
61827192,500
61837222,503
61847226,505
61857258,503
61867291,504
61877293,507
61887328,507
61897361,505
61907365,510
61917400,503
61927436,506
61937444,502
61947477,504
61957512,509
61967517,507
61977553,510
61987587,506
61997623,505
62007630,503
62017665,504
62027700,509
62037705,506
62047740,501
62057773,508
62067775,506
62077808,506
62087841,509
62097844,506
62107876,508
62117911,508
62127917,506
62137951,506
62147986,506
62157994,506
62168031,501
62178067,509
62188074,501
62198110,506
62208146,505
62218188,501
62228200,510
62238244,508
62248284,508
62258288,506
62268322,504
62278355,515
62288360,513
62298396,521
62308434,527
62318444,532
62328482,530
62338524,531
62348533,536
62358569,525
62368607,530
62378614,521
62388649,525
62398684,519
62408691,521
62418729,509
62428765,509
62438770,510
62448807,510
62458840,508
62468846,497
62478884,504
62488918,503
62498954,495
62508960,500
62518997,498
62529032,502
62539038,497
62549076,501
62559116,503
62569125,501
62579168,502
62589207,507
62599217,505
62609253,501
62619290,504
62629299,512
62639339,503
62649377,508
62659386,510
62669426,507
62679464,510
62689472,501
62699511,503
62709548,508
62719588,504
62729593,502
62739628,504
62749663,503
62759669,498
62769708,506
62779746,504
62789749,504
62799785,500
62809821,505
62819824,497
62829855,507
62839888,502
62849894,503
62859928,506
62869961,501
62879962,506
62889997,505
62900033,508
62910038,504
62920076,498
62930115,505
62940121,506
62950156,507
62960194,501
62970230,502
62980236,502
62990273,504
63000307,502
63010311,508
63020348,506
63030383,506
63040386,508
63050421,499
63060459,503
63070466,509
63080503,505
63090541,513
63100548,516
63110580,517
63120617,520
63130624,522
63140661,515
63150695,522
63160700,518
63170734,518
63180770,521
63190776,515
63200805,515
63210834,515
63220868,513
63230872,510
63240906,515
63250936,509
63260936,508
63270971,503
63281008,509
63291015,505
63301053,505
63311089,499
63321093,500
63331127,504
63341163,499
63351168,499
63361204,507
63371237,503
63381242,507
63391277,509
63401315,505
63411323,509
63421359,512
63431396,507
63441401,507
63451436,507
63461474,511
63471510,509
63481517,508
63491551,504
63501587,503
63511589,508
63521622,511
63531656,507
63541658,508
63551689,507
63561726,508
63571728,499
63581763,500
63591793,511
63601795,501
63611824,503
63621854,508
63631856,506
63641887,507
63651916,501
63661916,506
63671948,498
63681981,507
63691980,499
63702012,507
63712042,500
63722075,501
63732081,505
63742118,499
63752155,506
63762158,504
63772192,500
63782226,507
63792233,505
63802273,509
63812311,507
63822318,511
63832351,512
63842384,519
63852387,513
63862419,517
63872450,517
63882453,526
63892487,527
63902519,528
63912519,527
63922552,521
63932582,524
63942585,519
63952621,514
63962660,509
63972667,509
63982701,510
63992735,507
64002769,507
64012774,504
64022808,505
64032839,504
64042844,501
64052880,504
64062916,502
64072920,505
64082953,506
64092984,508
64102985,501
64113018,513
64123049,510
64133052,509
64143089,505
64153123,503
64163129,507
64173165,508
64183202,512
64193209,510
64203246,507
64213284,509
64223290,508
64233327,508
64243363,506
64253399,508
64263407,506
64273447,504
64283487,505
64293496,507
64303533,508
64313573,504
64323582,499
64333621,505
64343659,508
64353668,505
64363707,503
64373750,505
64383762,504
64393806,508
64403847,506
64413851,500
64423889,509
64433926,508
64443929,502
64453964,502
64464001,504
64474005,503
64484042,507
64494081,506
64504118,506
64514124,510
64524162,509
64534199,513
64544206,511
64554246,513
64564285,518
64574295,524
64584331,521
64594370,525
64604379,523
64614419,525
64624462,532
64634470,527
64644509,528
64654543,529
64664552,523
64674590,524
64684629,521
64694638,518
64704672,513
64714706,509
64724742,514
64734746,511
64744779,508
64754816,508
64764822,502
64774862,505
64784900,500
64794908,507
64804948,507
64814987,508
64824995,507
64835034,506
64845075,511
64855080,508
64865114,510
64875151,510
64885156,509
64895194,504
64905230,509
64915235,507
64925271,503
64935303,500
64945304,503
64955335,505
64965364,506
64975364,507
64985398,503
64995432,503
65005467,501
65015470,508
65025502,505
65035535,504
65045539,505
65055573,505
65065609,504
65075614,508
65085650,500
65095686,508
65105690,505
65115727,506
65125762,508
65135769,509
65145804,506
65155838,501
65165840,506
65175873,503
65185904,508
65195907,503
65205937,504
65215968,506
65226002,504
65236009,502
65246044,501
65256079,507
65266084,502
65276119,512
65286151,509
65296157,517
65306193,522
65316230,524
65326234,529
65336272,523
65346313,525
65356323,526
65366361,521
65376398,526
65386406,524
65396442,519
65406484,520
65416493,512
65426531,511
65436568,513
65446576,508
65456614,506
65466653,506
65476687,505
65486697,508
65496736,498
65506776,499
65516785,499
65526825,497
65536862,502
65546869,503
65556906,506
65566944,503
65576954,505
65586994,508
65597033,507
65607043,501
65617087,508
65627131,509
65637142,504
65647181,499
65657217,506
65667223,508
65677262,506
65687300,508
65697308,506
65707347,509
65717389,510
65727397,507
65737435,506
65747473,509
65757511,509
65767517,502
65777555,510
65787594,504
65797598,503
65807634,508
65817673,504
65827685,504
65837728,511
65847776,510
65857790,505
65867834,503
65877877,508
65887889,507
65897933,504
65907975,506
65917985,507
65928023,504
65938060,503
65948066,504
65958106,507
65968146,505
65978186,505
65988195,508
65998235,511
66008276,510
66018286,511
66028327,512
66038368,515
66048376,520
66058417,523
66068457,526
66078465,531
66088503,531
66098543,530
66108555,530
66118595,521
66128635,525
66138648,523
66148693,517
66158735,516
66168748,513
66178792,505
66188831,506
66198840,508
66208880,509
66218922,500
66228968,505
66238983,498
66249026,496
66259070,497
66269084,506
66279128,503
66289174,504
66299187,504
66309230,506
66319272,507
66329281,507
66339318,504
66349356,508
66359363,508
66369400,503
66379435,506
66389441,504
66399479,510
66409518,507
66419525,507
66429563,506
66439600,499
66449607,506
66459643,503
66469683,505
66479723,507
66489732,507
66499773,502
66509814,499
66519823,501
66529864,506
66539905,499
66549917,507
66559957,505
66569995,504
66580005,508
66590044,507
66600083,506
66610090,506
66620129,504
66630167,505
66640180,504
66650222,508
66660262,509
66670270,501
66680313,506
66690355,503
66700369,509
66710412,505
66720451,500
66730465,504
66740509,504
66750551,507
66760592,506
66770600,510
66780636,508
66790673,507
66800688,514
66810731,519
66820771,517
66830782,524
66840823,520
66850867,526
66860880,526
66870921,524
66880963,522
66890969,520
66901006,517
66911044,519
66921054,517
66931089,516
66941126,509
66951136,512
66961176,512
66971217,512
66981256,505
66991264,504
67001305,509
67011341,504
67021346,506
67031386,503
67041424,502
67051431,505
67061466,502
67071504,508
67081510,510
67091548,505
67101586,508
67111596,508
67121636,505
67131674,509
67141685,507
67151725,502
67161765,508
67171775,511
67181813,507
67191850,509
67201860,503
67211901,506
67221942,503
67231951,509
67241991,502
67252033,510
67262076,509
67272087,510
67282131,505
67292174,506
67302185,507
67312225,506
67322267,506
67332278,505
67342320,504
67352362,506
67362374,508
67372414,496
67382458,507
67392465,505
67402505,510
67412544,507
67422551,507
67432586,506
67442620,501
67452628,505
67462669,505
67472711,506
67482721,509
67492764,508
67502806,508
67512850,506
67522861,512
67532904,516
67542943,522
67552951,526
67562992,525
67573032,532
67583041,524
67593080,524
67603119,519
67613129,519
67623169,519
67633205,517
67643210,518
67653250,516
67663291,515
67673300,513
67683337,511
67693373,512
67703373,509
67713409,511
67723446,506
67733487,502
67743496,503
67753533,509
67763569,506
67773571,511
67783606,500
67793641,510
67803649,507
67813688,512
67823725,509
67833732,510
67843771,510
67853809,505
67863817,512
67873854,509
67883893,509
67893902,505
67903940,507
67913976,504
67923985,508
67934024,500
67944062,505
67954070,504
67964107,500
67974143,497
67984151,498
67994193,504
68004231,500
68014269,503
68024276,505
68034312,501
68044348,506
68054357,505
68064397,507
68074438,503
68084444,507
68094481,500
68104517,503
68114524,507
68124560,508
68134595,509
68144600,502
68154636,506
68164673,508
68174679,510
68184712,508
68194749,503
68204754,502
68214790,506
68224825,509
68234855,512
68244861,516
68254900,519
68264938,522
68274945,524
68284982,524
68295019,525
68305028,530
68315064,524
68325097,524
68335102,523
68345140,520
68355176,523
68365180,516
68375213,509
68385252,513
68395258,505
68405289,506
68415326,508
68425333,504
68435372,498
68445410,501
68455416,504
68465453,504
68475493,504
68485533,505
68495541,504
68505577,504
68515612,503
68525619,505
68535659,506
68545698,508
68555706,511
68565745,502
68575785,507
68585794,509
68595832,505
68605871,501
68615879,501
68625916,510
68635948,507
68645952,506
68655989,505
68666024,504
68676031,507
68686067,508
68696104,501
68706108,500
68716144,506
68726181,507
68736220,506
68746227,504
68756264,505
68766300,508
68776303,508
68786338,506
68796373,505
68806374,508
68816408,505
68826443,505
68836452,506
68846489,505
68856531,505
68866535,505
68876570,504
68886606,506
68896611,501
68906644,507
68916677,504
68926681,507
68936714,508
68946748,509
68956751,513
68966783,511
68976817,518
68986850,521
68996853,523
69006886,522
69016919,521
69026919,519
69036950,515
69046986,514
69056989,521
69067024,515
69077062,516
69087068,510
69097104,511
69107143,511
69117153,512
69127193,508
69137231,508
69147238,509
69157276,511
69167316,508
69177321,506
69187355,510
69197391,509
69207397,505
69217436,507
69227475,513
69237514,512
69247523,509
69257564,511
69267607,511
69277616,512
69287652,509
69297689,507
69307697,511
69317734,509
69327767,503
69337771,506
69347810,508
69357845,504
69367850,503
69377888,503
69387924,509
69397928,508
69407964,506
69417998,501
69428006,507
69438043,504
69448079,502
69458086,510
69468127,501
69478166,509
69488173,510
69498211,505
69508247,500
69518284,508
69528289,503
69538327,506
69548363,506
69558373,506
69568413,503
69578454,505
69588464,509
69598511,511
69608553,509
69618563,507
69628601,517
69638637,521
69648643,517
69658683,524
69668722,525
69678730,523
69688768,520
69698804,521
69708809,525
69718846,517
69728880,519
69738916,522
69748922,519
69758961,515
69769001,514
69779013,511
69789055,515
69799095,508
69809105,508
69819146,506
69829186,506
69839198,504
69849240,506
69859280,498
69869286,504
69879325,505
69889364,507
69899376,508
69909415,509
69919453,508
69929460,509
69939497,509
69949537,508
69959549,509
69969591,504
69979632,509
69989676,508
69999686,508
70009728,503
70019770,506
70029778,507
70039817,510
70049862,507
70059878,505
70069925,509
70079972,504
70089990,504
70100037,506
70110081,505
70120100,507
70130152,505
70140205,499
70150219,511
70160263,508
70170307,504
70180317,503
70190356,506
70200395,509
70210406,501
70220447,510
70230488,506
70240498,505
70250537,510
70260576,509
70270616,505
70280625,512
70290662,515
70300694,514
70310704,523
70320744,520
70330783,527
70340789,519
70350826,528
70360864,529
70370871,526
70380908,528
70390942,518
70400953,521
70410994,522
70421034,518
70431041,515
70441080,515
70451118,507
70461122,510
70471160,510
70481198,504
70491237,504
70501247,508
70511288,507
70521326,505
70531336,507
70541377,505
70551416,500
70561422,503
70571456,509
70581494,508
70591500,510
70601537,506
70611572,499
70621577,504
70631613,509
70641648,507
70651655,501
70661692,506
70671726,509
70681729,504
70691760,503
70701792,504
70711796,499
70721832,500
70731870,506
70741877,504
70751914,505
70761952,503
70771992,507
70781998,505
70792031,498
70802069,505
70812073,507
70822109,507
70832145,510
70842153,509
70852191,503
70862223,506
70872226,510
70882259,503
70892290,507
70902293,506
70912328,505
70922361,509
70932362,508
70942392,507
70952428,507
70962431,512
70972463,517
70982494,513
70992525,518
71002526,522
71012561,523
71022594,528
71032600,523
71042634,530
71052669,524
71062673,528
71072710,527
71082747,521
71092749,515
71102780,522
71112816,520
71122817,510
71132852,512
71142888,513
71152893,503
71162927,509
71172963,506
71182971,505
71193007,503
71203046,505
71213054,501
71223092,506
71233128,507
71243161,508
71253164,506
71263198,504
71273235,509
71283241,510
71293278,505
71303313,509
71313316,507
71323348,506
71333383,507
71343390,511
71353426,506
71363463,504
71373469,506
71383503,505
71393537,506
71403540,507
71413574,504
71423604,503
71433609,508
71443645,501
71453679,505
71463683,499
71473718,504
71483751,504
71493791,499
71503800,504
71513839,507
71523879,501
71533884,503
71543923,508
71553963,507
71563968,505
71574007,502
71584045,503
71594049,502
71604081,503
71614118,501
71624127,507
71634168,503
71644206,507
71654213,508
71664249,513
71674288,507
71684293,517
71694329,519
71704366,525
71714372,522
71724409,519
71734449,523
71744456,525
71754492,524
71764530,520
71774566,522
71784570,520
71794606,517
71804643,517
71814650,513
71824682,514
71834713,515
71844720,503
71854756,504
71864790,506
71874795,505
71884831,509
71894867,507
71904873,508
71914908,504
71924946,507
71934954,507
71944994,508
71955029,505
71965036,510
71975071,509
71985110,508
71995148,506
72005154,508
72015192,508
72025230,512
72035235,506
72045269,507
72055302,503
72065308,504
72075345,504
72085380,508
72095387,509
72105424,503
72115463,507
72125473,505
72135512,508
72145551,506
72155558,505
72165595,504
72175632,508
72185642,506
72195682,508
72205722,501
72215729,504
72225769,508
72235811,505
72245851,505
72255860,506
72265898,506
72275938,508
72285949,501
72295993,500
72306038,507
72316051,505
72326093,504
72336132,506
72346142,508
72356183,509
72366219,515
72376224,519
72386258,519
72396295,523
72406301,527
72416341,528
72426380,525
72436387,522
72446426,521
72456462,528
72466469,519
72476505,524
72486542,521
72496581,521
72506586,517
72516624,517
72526660,512
72536667,507
72546702,511
72556737,512
72566740,509
72576778,509
72586817,505
72596824,508
72606859,506
72616897,504
72626903,509
72636942,512
72646978,512
72656985,512
72667025,513
72677065,509
72687071,507
72697109,509
72707145,508
72717154,505
72727195,509
72737234,505
72747272,503
72757278,503
72767316,504
72777355,506
72787360,508
72797398,508
72807436,506
72817443,500
72827481,508
72837515,503
72847521,503
72857555,505
72867593,506
72877599,506
72887632,500
72897670,508
72907677,505
72917714,509
72927753,505
72937761,509
72947803,505
72957843,501
72967851,504
72977890,504
72987930,503
72997967,504
73007976,507
73018016,502
73028053,512
73038060,511
73048097,515
73058133,517
73068131,521
73078163,523
73088197,530
73098203,530
73108242,526
73118281,528
73128289,526
73138327,518
73148365,516
73158371,521
73168410,518
73178447,516
73188454,516
73198493,511
73208529,510
73218533,503
73228572,501
73238609,499
73248645,506
73258652,506
73268693,502
73278732,499
73288739,502
73298778,505
73308814,503
73318822,503
73328863,504
73338904,509
73348914,509
73358950,506
73368987,512
73378997,513
73389033,512
73399071,508
73409076,507
73419110,512
73429149,508
73439157,503
73449198,509
73459238,504
73469246,506
73479283,500
73489318,504
73499323,506
73509362,508
73519403,509
73529441,503
73539449,508
73549487,501
73559522,503
73569523,506
73579558,507
73589596,504
73599601,508
73609635,505
73619668,506
73629672,506
73639704,499
73649737,505
73659741,501
73669778,502
73679816,508
73689822,504
73699860,509
73709898,502
73719903,505
73729940,510
73739973,515
73750009,509
73760009,518
73770038,524
73780069,524
73790074,526
73800110,527
73810146,524
73820151,524
73830191,523
73840229,523
73850235,523
73860270,513
73870306,519
73880311,515
73890348,513
73900384,508
73910395,513
73920436,510
73930478,508
73940489,509
73950527,500
73960569,503
73970579,500
73980620,504
73990660,500
74000698,501
74010710,509
74020750,507
74030792,509
74040800,506
74050838,510
74060875,509
74070882,511
74080922,508
74090962,504
74100971,507
74111010,506
74121045,507
74131056,503
74141096,507
74151136,509
74161143,507
74171180,505
74181216,503
74191222,502
74201259,507
74211294,498
74221296,508
74231331,505
74241366,506
74251403,499
74261412,504
74271453,501
74281492,504
74291501,507
74301543,509
74311582,507
74321591,506
74331629,504
74341670,500
74351680,503
74361719,504
74371755,500
74381763,508
74391806,508
74401847,508
74411858,503
74421900,506
74431942,504
74441953,504
74451992,505
74462032,508
74472041,512
74482079,516
74492120,518
74502161,525
74512169,525
74522204,529
74532241,531
74542249,530
74552290,524
74562329,528
74572340,528
74582382,525
74592426,524
74602435,521
74612476,520
74622517,518
74632525,512
74642563,507
74652599,510
74662606,509
74672644,505
74682682,509
74692691,505
74702735,498
74712777,505
74722787,497
74732828,505
74742875,507
74752924,505
74762943,507
74772991,506
74783037,508
74793054,499
74803100,508
74813143,507
74823158,507
74833201,501
74843247,506
74853262,501
74863308,501
74873357,510
74883370,506
74893413,510
74903464,510
74913487,509
74923544,508
74933598,506
74943623,509
74953672,505
74963715,507
74973727,501
74983769,506
74993813,502
75003859,505
75013875,509
75023919,505
75033960,504
75043972,500
75054011,498
75064051,504
75074057,506
75084096,507
75094129,503
75104136,503
75114177,503
75124218,506
75134230,500
75144273,505
75154316,505
75164329,507
75174369,505
75184411,500
75194423,505
75204465,507
75214506,507
75224515,507
75234555,511
75244595,513
75254636,518
75264644,515
75274680,525
75284718,524
75294730,518
75304774,520
75314819,517
75324830,516
75334873,520
75344920,516
75354935,513
75364982,508
75375026,510
75385039,512
75395082,504
75405123,510
75415133,509
75425171,508
75435211,508
75445224,506
75455264,506
75465301,505
75475308,501
75485351,506
75495394,506
75505404,501
75515443,510
75525484,506
75535523,508
75545534,510
75555574,504
75565614,509
75575623,507
75585660,512
75595699,507
75605708,513
75615750,504
75625793,513
75635803,509
75645848,510
75655895,506
75665910,507
75675953,506
75685998,510
75696011,507
75706052,505
75716091,501
75726098,512
75736137,505
75746175,509
75756215,506
75766225,507
75776263,500
75786299,502
75796308,505
75806349,503
75816389,508
75826405,505
75836453,509
75846501,499
75856521,509
75866571,506
75876617,508
75886629,504
75896669,501
75906712,504
75916727,508
75926772,505
75936812,502
75946822,506
75956861,511
75966898,516
75976906,512
75986948,512
75996988,525
76007029,525
76017038,529
76027077,526
76037115,524
76047120,526
76057160,529
76067201,517
76077212,523
76087248,516
76097284,518
76107292,518
76117329,512
76127366,509
76137373,509
76147409,508
76157447,501
76167454,505
76177493,507
76187530,500
76197533,507
76207568,505
76217607,501
76227615,502
76237655,509
76247693,508
76257729,511
76267734,510
76277773,505
76287811,511
76297818,504
76307853,510
76317892,510
76327899,511
76337933,511
76347970,504
76357978,504
76368017,510
76378054,508
76388058,504
76398087,504
76408113,505
76418111,503
76428144,500
76438180,504
76448186,506
76458219,503
76468253,505
76478260,502
76488297,507
76498332,506
76508339,506
76518377,504
76528414,502
76538452,501
76548457,502
76558495,507
76568531,508
76578537,505
76588574,504
76598610,509
76608617,501
76618654,508
76628689,506
76638693,505
76648731,505
76658769,508
76668772,504
76678811,506
76688847,510
76698855,510
76708889,512
76718927,517
76728931,513
76738965,521
76749004,529
76759011,532
76769050,532
76779087,533
76789123,529
76799128,531
76809163,530
76819199,530
76829209,520
76839251,526
76849285,515
76859292,522
76869331,515
76879369,509
76889376,513
76899413,506
76909451,506
76919460,505
76929497,504
76939535,508
76949543,506
76959583,499
76969620,504
76979626,497
76989662,500
76999697,500
77009733,505
77019741,506
77029781,501
77039821,506
77049829,507
77059870,505
77069910,511
77079918,505
77089962,501
77100003,506
77110015,510
77120057,506
77130100,508
77140111,504
77150153,503
77160195,508
77170207,508
77180248,508
77190287,506
77200296,506
77210335,508
77220376,505
77230384,508
77240425,508
77250467,508
77260506,507
77270515,508
77280556,504
77290598,510
77300604,505
77310643,499
77320685,500
77330700,504
77340743,505
77350786,507
77360800,507
77370844,509
77380887,508
77390897,501
77400934,503
77410971,504
77420977,506
77431015,506
77441058,503
77451071,503
77461115,504
77471159,507
77481170,520
77491212,524
77501254,526
77511263,525
77521302,531
77531342,530
77541381,528
77551390,529
77561431,530
77571473,530
77581485,523
77591527,515
77601566,518
77611578,520
77621619,512
77631665,507
77641676,506
77651716,506
77661757,505
77671769,508
77681814,502
77691858,499
77701871,506
77711913,504
77721948,504
77731954,504
77741991,505
77752027,506
77762037,505
77772079,506
77782119,505
77792157,508
77802164,509
77812202,505
77822242,506
77832254,505
77842291,508
77852327,507
77862333,505
77872373,507
77882415,504
77892425,508
77902461,506
77912498,505
77922504,500
77932541,506
77942579,504
77952587,507
77962624,503
77972659,506
77982664,505
77992701,507
78002737,509
78012774,507
78022780,502
78032815,504
78042852,500
78052857,507
78062893,509
78072929,508
78082935,504
78092974,506
78103013,506
78113025,506
78123067,497
78133108,505
78143117,504
78153154,506
78163192,505
78173197,505
78183229,507
78193260,504
78203267,510
78213303,508
78223341,512
78233346,519
78243383,516
78253421,523
78263430,523
78273467,526
78283508,526
78293542,526
78303547,525
78313581,519
78323617,525
78333621,519
78343656,517
78353693,515
78363699,510
78373730,512
78383767,507
78393776,506
78403813,503
78413851,499
78423858,499
78433893,507
78443929,499
78453937,503
78463975,507
78474014,508
78484026,510
78494063,509
78504096,509
78514133,508
78524140,510
78534176,503
78544213,512
78554217,510
78564252,499
78574287,506
78584291,510
78594324,509
78604360,506
78614365,509
78624402,505
78634438,500
78644445,501
78654483,500
78664518,501
78674525,503
78684562,504
78694598,505
78704606,505
78714646,501
78724683,503
78734690,504
78744722,504
78754753,502
78764758,501
78774788,500
78784820,500
78794855,505
78804860,503
78814897,510
78824936,509
78834942,504
78844977,508
78855011,504
78865016,508
78875054,508
78885093,508
78895101,507
78905138,506
78915175,508
78925183,510
78935220,508
78945256,505
78955263,510
78965299,510
78975338,515
78985347,517
78995386,522
79005422,520
79015431,525
79025470,526
79035503,520
79045535,528
79055545,527
79065586,523
79075625,525
79085634,520
79095674,519
79105713,519
79115719,513
79125758,513
79135797,512
79145804,503
79155843,506
79165880,506
79175884,501
79185921,507
79195958,510
79205966,510
79216001,509
79226037,505
79236042,504
79246073,508
79256110,510
79266114,509
79276152,508
79286189,506
79296225,501
79306229,508
79316265,502
79326302,508
79336304,509
79346339,504
79356377,509
79366385,500
79376419,505
79386455,508
79396460,502
79406492,505
79416528,505
79426534,505
79436572,505
79446607,510
79456613,509
79466648,510
79476682,505
79486687,499
79496725,503
79506760,506
79516765,508
79526801,507
79536836,510
79546866,507
79556870,507
79566904,505
79576936,508
79586938,503
79596971,505
79607006,505
79617005,502
79627036,504
79637067,509
79647064,511
79657096,511
79667128,512
79677131,520
79687166,526
79697199,527
79707202,528
79717240,525
79727275,530
79737283,532
79747319,530
79757357,532
79767364,524
79777402,523
79787438,524
79797469,520
79807474,515
79817510,515
79827540,513
79837542,506
79847574,506
79857608,500
79867613,506
79877648,504
79887682,506
79897682,505
79907716,500
79917750,505
79927750,501
79937784,502
79947820,502
79957828,508
79967864,503
79977899,508
79987903,505
79997939,501
80007974,505
80017975,504
80028011,508
80038044,505
80048076,502
80058080,502
80068116,506
80078147,504
80088154,500
80098184,507
80108214,506
80118220,505
80128256,503
80138287,500
80148290,507
80158326,504
80168364,491
80178372,503
80188409,507
80198448,506
80208455,505
80218497,501
80228539,506
80238550,510
80248593,508
80258634,508
80268641,507
80278675,504
80288712,500
80298749,505
80308758,505
80318797,509
80328837,503
80338844,516
80348885,511
80358924,523
80368933,524
80378973,527
80389012,521
80399021,528
80409059,527
80419097,525
80429106,522
80439144,521
80449181,523
80459189,518
80469228,518
80479266,508
80489276,511
80499316,512
80509356,506
80519364,510
80529403,507
80539443,506
80549481,504
80559488,504
80569526,501
80579567,502
80589577,503
80599617,501
80609653,506
80619661,499
80629702,506
80639740,506
80649750,507
80659792,507
80669831,504
80679838,504
80689876,506
80699913,505
80709916,508
80719952,509
80729991,503
80739999,506
80750038,508
80760075,502
80770082,509
80780120,505
80790157,506
80800196,506
80810202,506
80820239,506
80830279,508
80840290,508
80850330,503
80860368,500
80870375,505
80880413,503
80890452,504
80900460,507
80910497,502
80920537,505
80930545,505
80940582,502
80950622,506
80960631,502
80970671,499
80980711,505
80990718,505
81000758,501
81010798,511
81020838,510
81030848,513
81040891,509
81050934,517
81060944,522
81070981,523
81081019,522
81091027,526
81101072,526
81111112,527
81121124,518
81131166,525
81141209,525
81151217,518
81161259,518
81171301,509
81181314,513
81191358,507
81201400,510
81211413,510
81221456,509
81231497,505
81241511,504
81251556,508
81261598,505
81271610,503
81281651,508
81291692,503
81301734,505
81311743,499
81321781,508
81331818,505
81341827,509
81351867,504
81361908,509
81371919,501
81381959,506
81391995,510
81402003,500
81412044,508
81422087,504
81432099,506
81442143,504
81452188,506
81462201,507
81472245,508
81482288,506
81492296,505
81502342,504
81512388,499
81522433,501
81532446,505
81542490,501
81552534,500
81562545,501
81572586,507
81582626,508
81592635,503
81602673,504
81612710,501
81622717,508
81632757,508
81642798,510
81652812,509
81662851,504
81672890,505
81682898,503
81692935,504
81702972,511
81712978,510
81723022,508
81733065,505
81743082,513
81753128,512
81763176,516
81773221,511
81783236,516
81793281,521
81803325,527
81813340,528
81823382,527
81833431,530
81843450,526
81853498,522
81863547,523
81873563,524
81883604,516
81893643,519
81903655,510
81913705,509
81923754,510
81933770,506
81943809,499
81953848,507
81963856,503
81973894,502
81983934,505
81993943,505
82003980,506
82014016,498
82024054,502
82034058,500
82044088,502
82054123,508
82064128,510
82074167,503
82084205,503
82094214,503
82104254,508
82114289,504
82124295,508
82134330,505
82144368,508
82154375,504
82164412,506
82174450,508
82184458,503
82194494,508
82204534,502
82214541,505
82224581,508
82234619,504
82244622,508
82254657,503
82264699,504
82274738,507
82284748,505
82294786,505
82304823,499
82314831,509
82324869,508
82334907,507
82344916,506
82354955,505
82364996,506
82375004,507
82385045,506
82395086,505
82405090,501
82415128,509
82425166,509
82435173,505
82445213,507
82455253,503
82465263,507
82475305,509
82485344,509
82495352,509
82505393,518
82515437,519
82525478,520
82535490,517
82545532,518
82555571,522
82565581,526
82575620,518
82585658,523
82595666,516
82605704,518
82615739,517
82625747,519
82635783,514
82645817,514
82655819,506
82665855,511
82675891,511
82685898,500
82695934,505
82705970,500
82715976,499
82726017,505
82736058,508
82746067,508
82756106,508
82766145,509
82776185,509
82786195,508
82796233,502
82806271,505
82816278,509
82826317,508
82836353,505
82846358,507
82856398,508
82866438,506
82876447,506
82886485,510
82896524,511
82906534,506
82916573,508
82926614,504
82936626,502
82946666,508
82956706,510
82966714,504
82976750,502
82986787,505
82996793,507
83006832,509
83016872,510
83026908,508
83036915,508
83046949,508
83056983,511
83066989,508
83077028,510
83087063,511
83097066,510
83107100,507
83117131,510
83127138,501
83137176,503
83147213,509
83157221,506
83167255,511
83177285,510
83187287,510
83197321,520
83207356,522
83217366,523
83227405,527
83237447,530
83247456,528
83257494,527
83267531,528
83277570,523
83287577,520
83297615,517
83307653,519
83317657,511
83327687,513
83337725,509
83347729,504
83357765,502
83367801,507
83377807,508
83387844,505
83397882,500
83407886,508
83417922,502
83427957,505
83437958,504
83447991,505
83458027,506
83468035,510
83478073,506
83488107,511
83498113,505
83508150,507
83518189,506
83528227,508
83538230,511
83548266,505
83558303,506
83568308,505
83578343,508
83588379,504
83598384,504
83608420,509
83618458,507
83628465,505
83638503,508
83648541,500
83658548,502
83668585,505
83678620,504
83688627,506
83698667,509
83708702,506
83718707,507
83728743,509
83738778,502
83748781,502
83758818,506
83768853,502
83778890,505
83788895,510
83798930,501
83808963,509
83818966,504
83829000,509
83839037,512
83849046,512
83859085,515
83869123,518
83879130,521
83889168,527
83899209,525
83909216,526
83919251,523
83929288,522
83939292,529
83949330,524
83959366,519
83969369,514
83979408,516
83989446,512
83999457,510
84009497,509
84019533,509
84029572,509
84039580,504
84049619,499
84059659,505
84069667,499
84079705,500
84089742,505
84099750,509
84109792,505
84119831,504
84129839,509
84139881,509
84149920,507
84159930,510
84169968,511
84180008,510
84190018,505
84200062,504
84210103,503
84220110,510
84230149,502
84240187,508
84250194,505
84260235,508
84270275,503
84280314,506
84290323,506
84300361,504
84310397,505
84320403,507
84330442,506
84340479,504
84350485,506
84360519,506
84370555,507
84380564,508
84390601,504
84400638,507
84410645,505
84420683,506
84430722,502
84440730,505
84450768,505
84460807,506
84470814,504
84480854,507
84490892,502
84500899,504
84510937,512
84520977,512
84531017,516
84541029,519
84551070,523
84561105,518
84571110,525
84581149,528
84591186,526
84601192,527
84611228,520
84621267,520
84631275,518
84641313,517
84651350,516
84661356,513
84671392,512
84681427,513
84691433,506
84701470,508
84711504,509
84721503,502
84731536,504
84741569,507
84751569,503
84761602,509
84771638,508
84781675,505
84791679,506
84801714,508
84811749,509
84821755,511
84831794,507
84841828,509
84851838,507
84861879,508
84871919,509
84881933,513
84891975,502
84902019,510
84912032,509
84922076,502
84932119,509
84942133,510
84952175,508
84962216,508
84972230,506
84982270,501
84992310,507
85002320,502
85012360,506
85022397,504
85032405,501
85042438,506
85052474,508
85062514,502
85072523,508
85082564,506
85092605,506
85102615,507
85112653,506
85122694,508
85132704,508
85142744,496
85152783,501
85162789,506
85172829,508
85182871,514
85192881,518
85202926,521
85212969,520
85222981,526
85233023,530
85243064,532
85253072,527
85263110,528
85273147,531
85283185,530
85293190,524
85303226,523
85313259,519
85323264,519
85333300,513
85343338,514
85353346,510
85363385,512
85373423,506
85383429,505
85393467,507
85403504,510
85413512,506
85423546,507
85433578,504
85443579,509
85453617,502
85463656,512
85473663,512
85483698,508
85493733,511
85503735,507
85513771,510
85523809,507
85533846,503
85543852,509
85553888,510
85563921,505
85573923,507
85583960,505
85594001,510
85604011,507
85614050,505
85624088,505
85634095,504
85644135,503
85654178,502
85664183,501
85674221,506
85684255,504
85694261,504
85704295,509
85714326,503
85724327,509
85734361,500
85744396,499
85754404,507
85764440,503
85774470,508
85784501,510
85794502,506
85804538,509
85814575,506
85824578,506
85834612,506
85844649,502
85854653,508
85864692,510
85874732,511
85884741,513
85894781,512
85904820,514
85914828,519
85924868,521
85934908,526
85944910,530
85954948,526
85964985,522
85974991,525
85985027,529
85995064,525
86005070,523
86015104,523
86025142,520
86035179,512
86045183,512
86055221,512
86065258,506
86075262,510
86085295,507
86095331,505
86105338,506
86115376,501
86125410,504
86135415,502
86145454,504
86155491,503
86165498,506
86175533,500
86185570,500
86195576,504
86205614,506
86215651,506
86225657,509
86235697,509
86245739,508
86255749,510
86265787,510
86275826,504
86285832,507
86295871,508
86305912,508
86315954,506
86325965,505
86336002,513
86346038,510
86356044,507
86366081,503
86376115,509
86386120,508
86396157,508
86406191,510
86416197,508
86426232,510
86436267,506
86446271,511
86456307,506
86466345,501
86476354,506
86486387,506
86496431,507
86506437,504
86516474,505
86526506,503
86536543,502
86546547,503
86556584,505
86566623,501
86576632,505
86586671,509
86596712,512
86606719,518
86616756,520
86626798,524
86636807,524
86646847,529
86656886,528
86666897,525
86676934,527
86686968,524
86696976,522
86707010,518
86717047,514
86727055,518
86737095,510
86747135,510
86757146,510
86767192,516
86777238,504
86787283,509
86797298,506
86807342,499
86817387,505
86827401,500
86837446,505
86847489,506
86857498,511
86867538,506
86877572,512
86887573,513
86897606,507
86907643,511
86917651,510
86927689,505
86937728,513
86947736,511
86957774,504
86967809,509
86977815,505
86987850,504
86997886,503
87007892,506
87017929,508
87027966,508
87038002,506
87048008,501
87058041,501
87068079,500
87078085,509
87088123,506
87098159,504
87108164,507
87118200,507
87128236,503
87138242,502
87148279,507
87158318,506
87168323,499
87178358,504
87188393,508
87198397,502
87208432,505
87218467,508
87228474,506
87238505,509
87248536,507
87258542,507
87268578,507
87278614,512
87288651,515
87298657,516
87308694,519
87318730,523
87328739,522
87338778,532
87348814,527
87358818,530
87368854,527
87378891,526
87388898,530
87398933,519
87408971,523
87418981,523
87429022,516
87439060,512
87449069,511
87459110,512
87469150,502
87479158,510
87489194,502
87499230,504
87509237,505
87519278,497
87529319,509
87539328,509
87549364,502
87559404,508
87569439,507
87579439,500
87589477,508
87599517,509
87609524,510
87619562,507
87629598,505
87639605,511
87649641,511
87659677,505
87669681,507
87679716,510
87689751,508
87699752,506
87709787,506
87719818,504
87729821,500
87739854,502
87749888,504
87759895,505
87769932,505
87779968,501
87790002,504
87800008,501
87810048,506
87820090,507
87830100,506
87840140,507
87850181,508
87860188,503
87870223,507
87880257,505
87890258,507
87900292,501
87910323,501
87920323,504
87930357,501
87940391,509
87950395,509
87960429,507
87970462,509
87980460,511
87990493,515
88000531,517
88010537,514
88020575,524
88030612,531
88040616,527
88050650,529
88060683,541
88070714,534
88080718,537
88090753,537
88100789,535
88110795,532
88120830,524
88130867,524
88140873,518
88150911,517
88160947,506
88170954,509
88180990,507
88191025,502
88201028,502
88211063,498
88221097,498
88231100,502
88241133,501
88251166,495
88261163,502
88271195,499
88281231,501
88291263,507
88301268,507
88311304,503
88321338,508
88331343,506
88341380,506
88351414,503
88361415,500
88371446,505
88381478,508
88391481,506
88401514,506
88411547,505
88421551,510
88431583,505
88441615,506
88451618,505
88461652,502
88471683,503
88481689,507
88491723,502
88501761,499
88511769,505
88521808,500
88531843,508
88541877,506
88551880,505
88561914,499
88571944,509
88581944,507
88591976,509
88602006,504
88612008,509
88622039,507
88632072,509
88642075,508
88652108,507
88662140,505
88672145,514
88682179,512
88692216,512
88702220,517
88712255,523
88722292,529
88732300,525
88742335,529
88752367,530
88762370,528
88772403,530
88782437,526
88792467,519
88802470,521
88812505,517
88822540,512
88832545,514
88842579,508
88852617,508
88862624,505
88872662,506
88882700,499
88892708,504
88902745,505
88912784,505
88922791,501
88932830,501
88942867,504
88952873,502
88962909,499
88972941,509
88982941,507
88992973,501
89003009,507
89013013,507
89023049,511
89033084,508
89043120,508
89053125,505
89063158,502
89073189,510
89083190,508
89093226,502
89103260,508
89113264,506
89123298,503
89133335,506
89143343,508
89153378,504
89163414,502
89173421,509
89183459,501
89193494,504
89203499,508
89213537,505
89223576,500
89233587,506
89243625,502
89253662,505
89263669,503
89273706,504
89283743,502
89293752,504
89303792,501
89313829,504
89323864,504
89333868,507
89343906,503
89353943,506
89363947,512
89373986,514
89384025,516
89394031,519
89404066,524
89414103,523
89424109,521
89434145,528
89444179,528
89454185,524
89464225,523
89474262,520
89484272,516
89494312,512
89504348,514
89514352,514
89524389,510
89534429,507
89544437,508
89554476,506
89564519,507
89574559,504
89584568,504
89594609,502
89604648,504
89614656,505
89624696,507
89634737,501
89644748,506
89654785,506
89664821,500
89674828,506
89684867,506
89694905,506
89704914,503
89714954,509
89724992,509
89735001,506
89745041,505
89755087,501
89765103,502
89775147,506
89785187,504
89795228,502
89805239,504
89815282,501
89825321,502
89835329,497
89845370,501
89855412,505
89865421,507
89875462,502
89885502,506
89895514,499
89905550,508
89915586,500
89925588,503
89935620,508
89945655,504
89955664,507
89965702,508
89975738,508
89985746,505
89995787,504
90005820,508
90015825,505
90025860,504
90035897,500
90045900,510
90055936,509
90065968,512
90076000,512
90086001,512
90096032,516
90106066,520
90116070,520
90126104,521
90136139,521
90146144,529
90156179,527
90166212,521
90176216,515
90186250,522
90196286,522
90206290,514
90216323,512
90226360,515
90236363,512
90246396,509
90256431,508
90266438,505
90276475,510
90286509,503
90296513,504
90306549,504
90316588,504
90326627,504
90336635,504
90346672,497
90356710,506
90366717,506
90376755,502
90386794,507
90396804,507
90406842,508
90416880,503
90426887,503
90436926,505
90446966,504
90456974,507
90467011,508
90477050,506
90487058,507
90497096,504
90507131,499
90517137,498
90527173,505
90537211,497
90547246,504
90557252,508
90567288,505
90577323,501
90587331,502
90597367,506
90607403,505
90617412,505
90627450,505
90637486,507
90647492,507
90657530,502
90667564,508
90677567,504
90687605,505
90697643,505
90707649,507
90717685,504
90727724,504
90737730,502
90747767,502
90757804,507
90767809,498
90777849,501
90787890,504
90797900,508
90807938,507
90817977,510
90828016,514
90838021,517
90848058,524
90858097,522
90868106,526
90878146,521
90888184,527
90898190,524
90908226,523
90918263,516
90928271,513
90938306,513
90948345,516
90958355,513
90968392,511
90978430,508
90988437,511
90998470,509
91008507,500
91018513,503
91028549,510
91038585,501
91048619,500
91058623,506
91068660,510
91078698,503
91088704,506
91098740,511
91108777,511
91118782,503
91128818,508
91138855,512
91148861,504
91158896,511
91168934,512
91178943,508
91188981,509
91199020,500
91209026,503
91219062,499
91229098,505
91239103,505
91249137,503
91259172,504
91269172,507
91279208,507
91289245,508
91299248,507
91309283,507
91319320,502
91329350,505
91339354,506
91349389,503
91359425,503
91369430,503
91379465,500
91389502,501
91399503,508
91409537,500
91419575,504
91429580,506
91439617,500
91449657,504
91459667,506
91469705,506
91479745,506
91489750,505
91499788,506
91509823,509
91519828,504
91529861,503
91539895,509
91549897,508
91559933,507
91569972,511
91580009,511
91590015,514
91600052,515
91610089,518
91620097,520
91630137,520
91640175,525
91650184,531
91660226,530
91670266,528
91680275,524
91690314,523
91700354,519
91710369,516
91720413,519
91730452,518
91740459,510
91750496,508
91760528,503
91770533,509
91780572,503
91790609,500
91800647,505
91810655,503
91820697,504
91830739,500
91840747,499
91850788,500
91860829,510
91870838,506
91880876,505
91890915,505
91900923,511
91910963,510
91921006,510
91931016,509
91941057,507
91951099,509
91961108,505
91971151,505
91981191,504
91991198,507
92001240,506
92011281,506
92021292,508
92031335,511
92041376,501
92051386,508
92061424,507
92071457,505
92081499,511
92091511,506
92101550,508
92111589,507
92121599,509
92131641,502
92141680,505
92151690,509
92161730,503
92171767,509
92181775,506
92191808,508
92201841,510
92211844,506
92221879,505
92231913,507
92241918,503
92251953,510
92261988,505
92271993,508
92282029,506
92292065,506
92302101,500
92312106,511
92322142,509
92332178,508
92342184,514
92352219,515
92362257,521
92372261,526
92382294,528
92392326,533
92402324,535
92412357,529
92422392,531
92432397,527
92442430,528
92452463,527
92462466,518
92472498,515
92482531,521
92492533,513
92502562,509
92512598,512
92522602,513
92532636,507
92542668,503
92552703,501
92562706,501
92572741,506
92582774,504
92592779,499
92602816,507
92612849,510
92622850,508
92632881,506
92642913,506
92652916,504
92662949,510
92672983,508
92682986,510
92693021,503
92703055,509
92713056,506
92723093,510
92733129,507
92743133,508
92753166,502
92763200,506
92773201,508
92783235,507
92793270,508
92803306,503
92813311,507
92823345,500
92833380,506
92843382,508
92853415,503
92863449,508
92873456,505
92883497,501
92893535,505
92903540,506
92913579,509
92923616,506
92933622,503
92943660,504
92953699,505
92963708,505
92973746,505
92983787,506
92993794,505
93003829,504
93013868,508
93023876,502
93033912,506
93043950,501
93053958,500
93063998,505
93074036,510
93084078,508
93094087,508
93104127,513
93114167,523
93124175,527
93134213,532
93144250,532
93154254,533
93164288,529
93174324,529
93184333,532
93194374,530
93204415,521
93214422,514
93224461,515
93234499,515
93244507,507
93254545,513
93264582,511
93274585,505
93284622,507
93294662,505
93304701,506
93314709,502
93324749,505
93334791,505
93344801,509
93354843,507
93364884,505
93374891,508
93384931,503
93394972,506
93404985,508
93415030,509
93425072,504
93435084,511
93445123,509
93455165,510
93465172,509
93475210,505
93485248,512
93495257,504
93505295,504
93515334,507
93525340,507
93535380,503
93545421,503
93555461,505
93565474,505
93575512,506
93585548,506
93595557,508
93605597,503
93615636,510
93625644,504
93635683,506
93645723,511
93655730,508
93665767,502
93675803,509
93685810,507
93695850,502
93705889,509
93715899,507
93725936,508
93735977,504
93745985,507
93756022,509
93766059,508
93776068,503
93786101,507
93796135,510
93806173,509
93816181,506
93826214,506
93836249,508
93846251,509
93856288,511
93866326,518
93876335,523
93886375,528
93896415,527
93906422,530
93916460,530
93926498,525
93936505,530
93946543,522
93956581,529
93966586,526
93976623,519
93986660,520
93996665,515
94006701,511
94016736,509
94026741,507
94036779,499
94046817,500
94056826,501
94066863,501
94076900,502
94086938,503
94096942,506
94106977,498
94117013,503
94127012,509
94137044,503
94147079,509
94157083,509
94167117,509
94177155,509
94187160,507
94197197,512
94207232,508
94217235,510
94227274,511
94237312,505
94247320,503
94257358,506
94267399,512
94277409,502
94287448,509
94297485,506
94307524,508
94317532,508
94327569,505
94337606,499
94347613,509
94357649,506
94367682,501
94377685,508
94387721,506
94397756,502
94407759,500
94417795,504
94427825,505
94437825,504
94447860,502
94457896,507
94467896,505
94477930,504
94487965,504
94497969,497
94508003,500
94518035,508
94528037,507
94538066,503
94548097,505
94558128,509
94568135,508
94578176,508
94588216,513
94598223,519
94608260,517
94618301,525
94628309,529
94638355,535
94648401,533
94658415,531
94668459,526
94678498,524
94688507,523
94698546,518
94708586,522
94718594,520
94728636,513
94738675,508
94748688,510
94758727,508
94768767,503
94778776,506
94788816,503
94798857,506
94808867,502
94818906,506
94828946,504
94838983,504
94848990,499
94859029,502
94869066,506
94879072,503
94889109,504
94899146,506
94909153,500
94919190,509
94929229,509
94939236,503
94949273,501
94959309,508
94969317,499
94979353,508
94989391,503
94999397,503
95009433,503
95019471,505
95029479,504
95039520,505
95049560,503
95059603,501
95069613,503
95079649,499
95089690,504
95099700,502
95109737,505
95119778,504
95129787,499
95139828,500
95149869,502
95159879,500
95169918,501
95179957,508
95189967,505
95200008,505
95210047,506
95220059,504
95230098,508
95240135,506
95250144,508
95260185,510
95270227,509
95280239,518
95290286,520
95300328,523
95310369,521
95320380,531
95330422,521
95340461,526
95350471,529
95360512,525
95370549,524
95380555,518
95390593,521
95400630,515
95410634,514
95420672,510
95430707,510
95440716,505
95450755,508
95460791,507
95470799,506
95480837,505
95490877,504
95500885,508
95510923,508
95520960,507
95530967,505
95541004,502
95551040,510
95561076,511
95571082,510
95581118,510
95591155,507
95601165,505
95611203,504
95621241,511
95631246,508
95641282,510
95651319,509
95661325,508
95671366,509
95681405,509
95691417,501
95701455,509
95711494,508
95721506,506
95731548,511
95741592,509
95751604,503
95761645,503
95771684,505
95781690,508
95791725,501
95801763,503
95811773,502
95821812,503
95831848,508
95841885,508
95851891,508
95861932,501
95871971,505
95881980,508
95892019,508
95902059,507
95912072,505
95922118,508
95932165,508
95942180,512
95952229,518
95962276,522
95972290,529
95982332,531
95992372,531
96002380,530
96012419,531
96022455,528
96032462,528
96042501,524
96052541,519
96062580,517
96072589,509
96082627,513
96092665,509
96102673,510
96112712,507
96122753,501
96132763,503
96142803,504
96152844,504
96162855,496
96172896,503
96182931,500
96192936,503
96202974,506
96213013,507
96223020,503
96233059,507
96243102,506
96253112,509
96263154,505
96273199,507
96283208,505
96293247,510
96303289,508
96313331,506
96323341,500
96333383,504
96343424,507
96353434,504
96363478,506
96373518,508
96383525,502
96393561,499
96403601,501
96413610,500
96423648,502
96433686,499
96443695,499
96453733,500
96463775,506
96473784,504
96483823,506
96493865,508
96503873,503
96513916,501
96523959,503
96533971,507
96544013,507
96554055,505
96564096,502
96574105,509
96584146,505
96594190,509
96604202,506
96614243,510
96624285,507
96634293,512
96644331,513
96654376,518
96664387,518
96674428,522
96684469,526
96694480,521
96704527,531
96714572,521
96724589,523
96734628,517
96744669,516
96754676,520
96764718,515
96774758,514
96784771,514
96794813,505
96804852,508
96814893,509
96824902,505
96834940,501
96844980,503
96854988,499
