timestamp, ppg
37867201,511
37877056,509
37887101,505
37897153,513
37907206,522
37917223,526
37927269,521
37937320,528
37947336,531
37957386,530
37967438,526
37977459,526
37987509,521
37997558,523
38007576,515
38017624,512
38027673,510
38037689,507
38047737,510
38057786,510
38067804,508
38077853,508
38087900,498
38097916,501
38107959,508
38118004,501
38128020,504
38138065,498
38148110,509
38158157,507
38168171,506
38178214,504
38188258,505
38198271,509
38208317,508
38218364,511
38228381,507
38238428,507
38248476,504
38258493,503
38268540,506
38278585,508
38288602,503
38298648,502
38308691,506
38318706,501
38328755,508
38338804,504
38348823,504
38358875,505
38368924,507
38378944,503
38388990,501
38399034,504
38409080,507
38419096,504
38429140,501
38439185,504
38449205,502
38459252,506
38469300,506
38479318,503
38489366,508
38499414,503
38509429,505
38519472,504
38529516,503
38539530,511
38549575,507
38559616,498
38569630,508
38579677,502
38589724,505
38599740,505
38609784,501
38619830,503
38629847,511
38639897,508
38649942,518
38659988,521
38670003,515
38680049,519
38690096,522
38700112,528
38710162,527
38720210,531
38730228,529
38740278,521
38750325,522
38760343,517
38770389,511
38780435,508
38790446,513
38800491,504
38810534,509
38820547,503
38830591,506
38840633,500
38850645,506
38860688,507
38870733,499
38880744,507
38890785,504
38900829,500
38910869,507
38920883,502
38930926,505
38940973,507
38950987,501
38961031,508
38971078,508
38981091,505
38991132,508
39001176,503
39011189,505
39021234,500
39031282,506
39041303,505
39051354,506
39061407,504
39071426,504
39081473,505
39091518,498
39101534,502
39111580,498
39121626,505
39131645,503
39141692,507
39151739,507
39161756,506
39171803,507
39181850,503
39191898,500
39201914,503
39211964,498
39222013,503
39232029,507
39242077,504
39252124,500
39262143,505
39272187,502
39282236,505
39292256,509
39302306,510
39312355,506
39322377,504
39332429,505
39342486,504
39352507,506
39362554,509
39372604,507
39382625,504
39392677,508
39402728,515
39412745,522
39422794,516
39432841,526
39442890,528
39452908,527
39462956,521
39473006,523
39483022,522
39493070,521
39503120,520
39513138,515
39523188,510
39533238,513
39543259,504
39553308,510
39563357,500
39573376,499
39583426,496
39593474,503
39603490,494
39613537,494
39623585,501
39633603,501
39643651,501
39653698,503
39663742,503
39673755,503
39683803,506
39693850,505
39703863,509
39713906,507
39723955,504
39733974,508
39744024,502
39754072,508
39764091,501
39774143,504
39784193,499
39794215,507
39804266,502
39814316,500
39824336,504
39834386,505
39844434,500
39854451,505
39864502,506
39874553,504
39884571,506
39894623,499
39904673,503
39914722,503
39924738,504
39934791,501
39944843,506
39954864,499
39964912,499
39974962,505
39984981,497
39995033,499
40005084,505
40015107,499
40025153,504
40035199,501
40045218,505
40055263,498
40065309,502
40075322,505
40085364,500
40095407,509
40105419,513
40115467,518
40125518,522
40135537,523
40145585,530
40155631,528
40165680,533
40175697,523
40185744,519
40195792,524
40205807,522
40215851,518
40225897,518
40235912,512
40245958,512
40256005,511
40266026,506
40276073,504
40286120,500
40296140,498
40306190,494
40316237,501
40326259,496
40336309,499
40346359,499
40356378,506
40366426,498
40376474,498
40386491,506
40396537,511
40406586,509
40416602,506
40426648,512
40436694,507
40446740,508
40456755,509
40466801,509
40476845,512
40486861,508
40496906,510
40506949,508
40516967,509
40527019,509
40537070,502
40547091,509
40557140,506
40567189,500
40577209,510
40587258,510
40597308,506
40607328,506
40617373,509
40627419,500
40637434,506
40647478,504
40657521,509
40667562,509
40677572,506
40687615,506
40697660,502
40707677,503
40717723,509
40727769,507
40737787,503
40747833,509
40757880,502
40767895,501
40777942,508
40787990,509
40798004,505
40808050,510
40818097,512
40828110,520
40838155,527
40848200,529
40858215,530
40868263,526
40878315,530
40888333,525
40898383,519
40908432,527
40918479,522
40928497,515
40938545,513
40948593,514
40958609,510
40968657,506
40978706,506
40988722,506
40998766,499
41008808,503
41018824,500
41028870,498
41038912,501
41048925,504
41058973,497
41069023,497
41079040,501
41089082,498
41099124,498
41109141,504
41119184,510
41129229,509
41139245,499
41149289,503
41159335,508
41169350,508
41179395,505
41189442,504
41199489,502
41209505,499
41219550,505
41229594,496
41239607,502
41249646,495
41259687,502
41269699,500
41279743,502
41289789,495
41299803,499
41309850,502
41319894,505
41329908,496
41339955,507
41350000,500
41360015,505
41370061,505
41380109,503
41390125,502
41400169,506
41410222,505
41420278,505
41430298,502
41440346,505
41450392,503
41460407,506
41470452,500
41480495,509
41490513,510
41500558,501
41510606,506
41520622,506
41530672,508
41540722,516
41550739,516
41560787,513
41570835,519
41580852,526
41590899,521
41600948,528
41610964,532
41621010,531
41631058,531
41641075,521
41651123,522
41661172,519
41671221,521
41681239,515
41691286,514
41701334,512
41711354,503
41721402,509
41731450,507
41741469,500
41751519,504
41761569,503
41771588,500
41781636,499
41791687,498
41801707,503
41811756,506
41821803,509
41831820,504
41841869,506
41851918,507
41861939,502
41871987,510
41882033,508
41892046,513
41902091,507
41912139,502
41922186,511
41932203,505
41942249,505
41952298,502
41962314,506
41972364,502
41982411,508
41992428,502
42002476,503
42012520,505
42022537,504
42032585,499
42042635,503
42052654,501
42062705,505
42072756,507
42082778,506
42092830,507
42102879,506
42112900,506
42122951,506
42133001,506
42143019,507
42153067,507
42163118,507
42173137,508
42183186,508
42193235,505
42203286,503
42213306,506
42223359,508
42233412,506
42243437,505
42253490,499
42263539,506
42273560,507
42283611,507
42293663,514
42303686,512
42313736,525
42323790,526
42333813,521
42343867,534
42353918,526
42363936,529
42373988,532
42384039,529
42394059,523
42404110,520
42414160,516
42424212,512
42434234,512
42444284,510
42454330,505
42464343,503
42474392,504
42484440,503
42494456,495
42504503,499
42514547,503
42524561,503
42534612,503
42544662,504
42554679,500
42564727,506
42574778,510
42584799,509
42594849,511
42604898,509
42614916,509
42624968,508
42635015,503
42645033,501
42655082,507
42665130,509
42675176,502
42685192,501
42695236,506
42705279,505
42715291,503
42725333,503
42735376,499
42745390,501
42755434,504
42765483,502
42775503,509
42785553,508
42795600,507
42805615,504
42815661,511
42825706,509
42835721,505
42845768,508
42855818,505
42865836,507
42875885,505
42885933,498
42895952,500
42905999,506
42916045,501
42926092,497
42936108,503
42946155,502
42956205,501
42966224,502
42976274,503
42986321,504
42996338,510
43006386,505
43016432,504
43026450,510
43036499,516
43046548,516
43056565,522
43066612,531
43076658,530
43086677,530
43096725,531
43106769,532
43116782,529
43126822,525
43136865,522
43146872,521
43156914,511
43166959,513
43177004,510
43187022,505
43197071,504
43207114,498
43217129,501
43227176,495
43237223,504
43247243,502
43257297,500
43267346,499
43277365,503
43287418,508
43297472,505
43307496,509
43317550,504
43327606,510
43337630,507
43347685,510
43357741,514
43367768,504
43377823,512
43387880,512
43397907,512
43407962,509
43418016,509
43428041,508
43438094,504
43448146,505
43458195,507
43468216,502
43478272,506
43488323,506
43498345,503
43508397,501
43518450,504
43528473,506
43538523,505
43548574,506
43558595,501
43568647,505
43578700,507
43588722,506
43598774,504
43608828,499
43618853,501
43628909,509
43638963,503
43648988,499
43659042,508
43669101,503
43679161,506
43689185,500
43699245,506
43709302,503
43719328,501
43729389,507
43739450,506
43749481,511
43759540,514
43769601,509
43779626,516
43789678,521
43799732,523
43809753,530
43819803,526
43829855,527
43839880,532
43849935,526
43859986,526
43870005,526
43880054,517
43890102,511
43900120,514
43910171,507
43920222,510
43930240,509
43940287,504
43950329,503
43960372,499
43970387,503
43980432,502
43990481,496
44000498,498
44010545,506
44020592,505
44030606,505
44040652,507
44050699,502
44060712,512
44070759,514
44080806,503
44090823,504
44100867,508
44110913,512
44120928,509
44130970,511
44141013,508
44151027,506
44161073,502
44171116,501
44181160,501
44191176,504
44201218,507
44211261,499
44221272,508
44231313,504
44241352,507
44251365,505
44261408,509
44271454,507
44281469,509
44291513,508
44301556,503
44311568,507
44321611,504
44331654,510
44341667,507
44351711,511
44361757,508
44371773,508
44381817,503
44391861,509
44401876,509
44411920,508
44421963,504
44431977,509
44442021,512
44452065,516
44462113,519
44472129,518
44482174,528
44492219,531
44502234,534
44512278,529
44522328,530
44532344,533
44542392,526
44552439,526
44562456,524
44572510,517
44582558,519
44592571,518
44602614,509
44612659,510
44622675,504
44632720,501
44642768,499
44652785,499
44662833,500
44672882,504
44682930,501
44692946,503
44702991,507
44713038,508
44723054,506
44733100,506
44743145,510
44753158,509
44763203,510
44773247,510
44783263,514
44793310,514
44803356,508
44813374,508
44823417,507
44833460,501
44843471,507
44853513,506
44863558,507
44873569,506
44883610,508
44893651,499
44903663,504
44913707,506
44923753,503
44933799,503
44943811,510
44953854,508
44963898,508
44973915,512
44983960,510
44994004,511
45004015,511
45014058,504
45024102,505
45034115,510
45044159,511
45054203,502
45064216,509
45074260,503
45084305,501
45094320,508
45104368,511
45114416,513
45124431,514
45134477,520
45144525,522
45154542,526
45164588,524
45174632,530
45184679,533
45194694,528
45204739,523
45214784,525
45224799,525
45234844,525
45244888,518
45254904,514
45264953,510
45275001,512
45285014,512
45295058,505
45305103,503
45315118,507
45325160,498
45335204,496
45345218,505
45355263,506
45365309,505
45375323,506
45385367,502
45395410,510
45405427,504
45415475,506
45425520,500
45435564,509
45445573,511
45455617,508
45465659,506
45475672,506
45485715,508
45495760,506
45505770,509
45515812,508
45525855,501
45535866,499
45545908,503
45555947,508
45565956,497
45575994,506
45586034,505
45596047,499
45606089,507
45616133,505
45626144,509
45636190,506
45646233,500
45656247,500
45666290,504
45676329,499
45686369,507
45696379,507
45706420,500
45716459,507
45726469,505
45736508,499
45746549,506
45756563,499
45766606,509
45776647,509
45786657,514
45796700,517
45806743,517
45816757,517
45826802,529
45836846,533
45846862,534
45856905,536
45866950,528
45876966,534
45887012,526
45897051,526
45907061,522
45917102,518
45927145,511
45937154,508
45947199,503
45957243,506
45967287,504
45977301,500
45987346,499
45997390,495
46007402,499
46017448,497
46027492,502
46037508,504
46047548,504
46057588,504
46067601,503
46077644,508
46087689,508
46097701,506
46107743,507
46117786,508
46127799,507
46137840,507
46147885,502
46157901,500
46167946,502
46177992,505
46188008,507
46198053,507
46208098,505
46218144,506
46228160,504
46238208,501
46248254,495
46258270,504
46268317,504
46278364,501
46288372,499
46298420,499
46308471,503
46318492,507
46328541,505
46338591,500
46348610,506
46358657,504
46368701,499
46378716,498
46388756,504
46398796,507
46408808,507
46418848,507
46428886,509
46438892,503
46448929,504
46458969,509
46469009,510
46479019,505
46489057,513
46499097,514
46509108,525
46519149,522
46529191,527
46539201,527
46549243,529
46559281,527
46569291,521
46579335,518
46589378,524
46599385,519
46609425,518
46619465,513
46629473,506
46639514,509
46649550,508
46659553,499
46669593,497
46679629,504
46689637,500
46699679,502
46709724,501
46719768,496
46729782,505
46739824,505
46749864,505
46759872,503
46769917,508
46779958,506
46789971,507
46800015,507
46810060,508
46820075,504
46830116,506
46840157,505
46850170,508
46860217,500
46870262,508
46880277,504
46890323,502
46900370,505
46910385,504
46920430,503
46930478,504
46940497,505
46950541,504
46960587,506
46970629,500
46980642,504
46990685,503
47000729,497
47010740,498
47020785,502
47030830,498
47040843,498
47050887,504
47060928,505
47070938,508
47080981,508
47091023,500
47101031,506
47111072,506
47121113,503
47131123,507
47141162,503
47151203,500
47161212,507
47171250,512
47181287,512
47191297,513
47201338,517
47211379,527
47221420,526
47231431,527
47241475,528
47251518,528
47261530,519
47271572,519
47281614,515
47291626,518
47301667,514
47311710,507
47321719,505
47331763,507
47341808,499
47351823,498
47361869,507
47371910,497
47381919,504
47391958,497
47401998,502
47412007,506
47422047,504
47432089,505
47442130,505
47452141,508
47462182,510
47472222,510
47482230,504
47492273,508
47502314,503
47512328,506
47522373,510
47532416,510
47542426,509
47552472,501
47562519,506
47572534,501
47582577,509
47592620,504
47602636,508
47612680,507
47622727,502
47632743,506
47642789,500
47652836,507
47662851,506
47672895,504
47682942,510
47692956,507
47703000,507
47713043,510
47723087,508
47733102,505
47743147,507
47753192,502
47763205,501
47773246,505
47783290,505
47793302,501
47803344,505
47813386,501
47823396,506
47833438,511
47843479,506
47853485,516
47863521,518
47873559,518
47883567,527
47893607,522
47903649,528
47913659,530
47923700,521
47933744,525
47943755,518
47953796,517
47963835,520
47973878,513
47983892,512
47993934,509
48003974,510
48013985,506
48024029,505
48034073,504
48044084,497
48054125,501
48064166,500
48074175,501
48084216,503
48094266,499
48104283,505
48114325,507
48124367,507
48134378,509
48144420,512
48154463,508
48164474,513
48174518,509
48184559,510
48194572,505
48204617,512
48214662,507
48224705,509
48234715,508
48244757,508
48254795,508
48264805,506
48274844,502
48284883,502
48294893,499
48304933,503
48314976,504
48324986,507
48335028,503
48345069,506
48355076,502
48365121,507
48375166,505
48385179,505
48395222,505
48405267,502
48415281,506
48425324,508
48435368,506
48445381,506
48455426,505
48465467,501
48475509,508
48485519,506
48495560,509
48505603,510
48515615,512
48525662,512
48535706,516
48545720,516
48555765,524
48565809,521
48575819,528
48585860,529
48595901,530
48605914,526
48615958,527
48626002,526
48636017,516
48646062,519
48656104,519
48666115,516
48676156,515
48686197,512
48696209,508
48706252,509
48716299,503
48726347,498
48736371,501
48746423,500
48756468,499
48766483,499
48776530,502
48786579,503
48796597,500
48806645,505
48816690,507
48826705,508
48836750,509
48846795,509
48856809,505
48866856,503
48876899,508
48886915,507
48896963,503
48907012,503
48917031,504
48927078,508
48937123,503
48947138,503
48957178,505
48967222,501
48977268,503
48987283,496
48997331,505
49007380,506
49017393,500
49027438,505
49037481,504
49047496,500
49057542,506
49067587,499
49077602,508
49087650,497
49097697,508
49107715,502
49117762,508
49127808,504
49137828,508
49147875,506
49157922,504
49167940,504
49177993,503
49188043,506
49198094,497
49208117,503
49218171,506
49228218,511
49238236,513
49248286,514
49258335,523
49268350,522
49278398,535
49288446,530
49298460,536
49308506,529
49318552,532
49328563,530
49338608,528
49348652,526
49358663,515
49368707,520
49378751,515
49388764,511
49398812,513
49408858,509
49418874,509
49428921,505
49438971,503
49449015,501
49459029,497
49469075,503
49479121,506
49489135,497
49499182,504
49509229,503
49519246,503
49529294,503
49539342,507
49549363,508
49559411,504
49569461,507
49579478,501
49589525,501
49599571,507
49609587,505
49619635,508
49629683,503
49639702,507
49649751,508
49659802,504
49669822,507
49679870,498
49689916,501
49699964,500
49709975,504
49720019,502
49730065,498
49740080,503
49750124,505
49760164,502
49770176,507
49780220,505
49790263,504
49800282,509
49810330,506
49820379,509
49830397,508
49840444,510
49850487,500
49860500,508
49870546,510
49880588,505
49890599,506
49900641,503
49910685,507
49920695,508
49930736,503
49940779,506
49950818,507
49960826,505
49970869,515
49980911,516
49990925,518
50000969,529
50011015,530
50021028,530
50031072,533
50041114,532
50051127,529
50061170,526
50071215,525
50081226,518
50091267,516
50101309,516
50111319,513
50121360,509
50131405,509
50141419,503
50151461,499
50161502,508
50171514,507
50181557,497
50191601,502
50201644,501
50211656,496
50221699,497
50231742,502
50241755,507
50251798,505
50261839,506
50271851,501
50281892,507
50291933,504
50301947,503
50311996,508
50322044,507
50332063,507
50342112,508
50352161,505
50362177,503
50372225,504
50382271,504
50392286,504
50402332,503
50412380,506
50422397,503
50432445,508
50442491,504
50452535,502
50462548,504
50472596,504
50482644,501
50492658,505
50502701,507
50512746,502
50522764,506
50532811,503
50542858,502
50552875,506
50562923,508
50572970,503
50582983,510
50593026,510
50603070,504
50613083,507
50623128,504
50633175,506
50643191,508
50653238,508
50663282,504
50673295,508
50683330,501
50693370,512
50703383,509
50713430,518
50723470,518
50733514,519
50743530,531
50753578,533
50763626,532
50773642,530
50783690,527
50793733,532
50803748,525
50813795,528
50823843,528
50833868,523
50843921,520
50853975,515
50863996,509
50874048,515
50884101,510
50894115,509
50904159,500
50914200,505
50924214,500
50934262,504
50944305,503
50954350,504
50964362,506
50974409,504
50984454,509
50994471,503
51004520,505
51014567,509
51024583,505
51034632,507
51044680,511
51054698,504
51064742,513
51074788,511
51084805,509
51094853,504
51104901,508
51114918,502
51124966,511
51135014,504
51145030,509
51155079,500
51165127,508
51175145,502
51185192,505
51195242,508
51205292,503
51215310,507
51225359,510
51235409,508
51245428,500
51255481,510
51265531,501
51275555,507
51285613,508
51295672,509
51305695,503
51315749,508
51325805,508
51335832,503
51345887,500
51355937,504
51365962,507
51376015,504
51386065,508
51396082,509
51406132,508
51416185,502
51426201,512
51436247,511
51446297,511
51456351,510
51466371,518
51476425,524
51486481,522
51496504,525
51506558,527
51516612,533
51526635,533
51536688,529
51546738,521
51556759,522
51566810,523
51576860,517
51586876,511
51596925,512
51606972,506
51616988,507
51627035,505
51637085,505
51647101,495
51657146,500
51667194,500
51677210,495
51687259,500
51697304,500
51707352,498
51717371,500
51727418,502
51737462,499
51747477,506
51757525,498
51767571,508
51777590,505
51787637,508
51797683,506
51807700,510
51817748,505
51827795,506
51837811,502
51847859,504
51857908,505
51867929,508
51877977,506
51888027,506
51898046,502
51908094,506
51918142,507
51928159,506
51938209,503
51948259,509
51958308,501
51968326,506
51978373,510
51988423,504
51998442,502
52008492,506
52018540,510
52028560,507
52038610,503
52048661,504
52058681,508
52068728,508
52078778,508
52088800,510
52098851,510
52108900,503
52118918,506
52128968,502
52139019,507
52149038,500
52159089,500
52169142,507
52179166,510
52189219,505
52199270,506
52209321,510
52219346,514
52229399,517
52239455,516
52249480,524
52259536,526
52269590,529
52279610,524
52289663,529
52299716,527
52309738,526
52319787,522
52329839,518
52339857,515
52349904,509
52359951,508
52369969,505
52380020,502
52390070,505
52400094,500
52410149,501
52420204,503
52430229,504
52440284,507
52450339,499
52460362,504
52470418,500
52480472,508
52490526,505
52500546,505
52510601,510
52520653,508
52530675,509
52540730,502
52550783,510
52560803,510
52570856,511
52580906,501
52590925,509
52600974,507
52611021,508
52621040,499
52631089,503
52641138,504
52651157,507
52661208,501
52671258,506
52681278,504
52691329,505
52701377,505
52711425,500
52721445,505
52731495,501
52741545,507
52751565,509
52761614,506
52771664,507
52781682,509
52791729,508
52801778,509
52811798,511
52821848,510
52831901,509
52841917,508
52851966,512
52862014,503
52872031,509
52882076,509
52892120,508
52902135,505
52912181,512
52922227,508
52932240,508
52942288,508
52952334,502
52962383,510
52972400,515
52982448,516
52992499,517
53002521,525
53012575,527
53022626,532
53032647,532
53042697,530
53052746,527
53062767,526
53072818,522
53082873,514
53092893,518
53102944,507
53112990,514
53123009,506
53133055,501
53143099,501
53153111,502
53163157,496
53173203,500
53183221,500
53193272,504
53203322,495
53213376,502
53223395,506
53233443,507
53243489,509
53253507,510
53263556,506
53273607,506
53283628,509
53293679,511
53303728,504
53313742,511
53323792,510
53333840,506
53343854,504
53353902,506
53363951,508
53373973,511
53384019,505
53394062,502
53404072,507
53414122,504
53424172,505
53434188,504
53444236,506
53454283,498
53464300,502
53474351,505
53484404,501
53494453,509
53504474,498
53514524,501
53524576,506
53534595,506
53544643,504
53554690,506
53564708,505
53574759,504
53584809,506
53594827,507
53604875,502
53614917,504
53624934,498
53634977,506
53645023,507
53655039,509
53665084,508
53675128,505
53685142,514
53695188,511
53705236,515
53715284,524
53725301,526
53735347,526
53745397,522
53755419,526
53765468,525
53775519,522
53785536,512
53795578,517
53805623,510
53815641,504
53825686,512
53835731,501
53845746,501
53855792,500
53865840,506
53875854,499
53885899,505
53895944,505
53905957,499
53916003,502
53926051,507
53936068,506
53946114,512
53956162,507
53966209,511
53976223,510
53986272,515
53996318,512
54006336,506
54016381,510
54026425,507
54036440,501
54046488,510
54056538,511
54066557,513
54076606,503
54086658,503
54096676,503
54106726,502
54116776,508
54126794,504
54136844,508
54146890,504
54156908,510
54166956,506
54177006,506
54187026,507
54197073,506
54207122,508
54217142,509
54227190,499
54237236,506
54247281,503
54257300,507
54267349,502
54277397,507
54287415,507
54297463,506
54307509,503
54317522,508
54327571,508
54337622,508
54347643,512
54357694,516
54367747,520
54377768,522
54387817,526
54397865,525
54407876,526
54417919,531
54427964,528
54437980,531
54448026,521
54458073,518
54468120,523
54478139,523
54488191,520
54498242,514
54508263,508
54518315,507
54528366,509
54538384,507
54548430,507
54558479,503
54568496,501
54578542,503
54588592,505
54598613,506
54608662,506
54618710,509
54628730,507
54638779,505
54648825,507
54658841,509
54668889,508
54678937,512
54688952,505
54698997,511
54709044,512
54719058,512
54729103,509
54739151,508
54749198,500
54759216,505
54769259,508
54779308,505
54789327,503
54799377,505
54809427,507
54819445,499
54829492,504
54839541,509
54849559,501
54859610,508
54869660,508
54879676,508
54889725,506
54899778,506
54909796,509
54919846,505
54929900,508
54939920,505
54949972,506
54960022,510
54970042,502
54980093,508
54990143,504
55000192,504
55010208,508
55020254,508
55030301,508
55040320,512
55050369,514
55060420,512
55070438,519
55080480,526
55090523,526
55100536,530
55110582,525
55120632,535
55130651,529
55140702,528
55150757,527
55160777,518
55170827,517
55180876,517
55190898,514
55200949,514
55210996,504
55221041,507
55231055,506
55241101,502
55251148,504
55261167,498
55271215,506
55281259,497
55291276,505
55301324,504
55311370,501
55321388,505
55331437,500
55341485,505
55351509,509
55361560,508
55371609,510
55381630,508
55391681,506
55401732,507
55411755,505
55421809,505
55431862,504
55441884,508
55451934,505
55461983,507
55472003,507
55482053,501
55492101,506
55502149,501
55512165,501
55522213,507
55532261,500
55542280,498
55552330,506
55562384,507
55572406,501
55582458,508
55592509,506
55602531,507
55612584,500
55622637,510
55632657,504
55642703,508
55652751,508
55662773,505
55672823,503
55682874,503
55692896,501
55702949,506
55713003,503
55723025,508
55733076,508
55743128,510
55753179,504
55763205,505
55773259,513
55783310,516
55793330,520
55803383,527
55813434,530
55823458,525
55833513,526
55843568,519
55853584,518
55863634,520
55873685,516
55883703,514
55893752,521
55903802,517
55913819,508
55923866,512
55933912,508
55943929,503
55953974,506
55964021,506
55974039,506
55984088,501
55994135,501
56004185,505
56014205,500
56024255,505
56034302,500
56044320,502
56054372,502
56064423,509
56074445,499
56084495,508
56094545,504
56104564,508
56114615,508
56124665,507
56134682,510
56144734,507
56154783,509
56164799,506
56174850,499
56184900,504
56194916,500
56204966,506
56215013,504
56225031,502
56235084,507
56245137,503
56255187,505
56265205,499
56275254,507
56285303,502
56295318,503
56305365,510
56315412,504
56325428,503
56335477,505
56345528,501
56355549,504
56365599,500
56375650,507
56385671,502
56395720,502
56405768,501
56415786,507
56425834,497
56435884,499
56445903,505
56455952,505
56466001,506
56476050,504
56486068,508
56496114,507
56506162,510
56516183,509
56526235,515
56536285,521
56546308,519
56556359,519
56566410,531
56576429,528
56586482,525
56596533,526
56606554,525
56616607,523
56626657,521
56636677,520
56646729,515
56656780,508
56666801,508
56676850,510
56686900,504
56696921,501
56706971,496
56717022,499
56727074,501
56737097,500
56747152,501
56757204,500
56767226,502
56777285,505
56787343,505
56797371,501
56807425,510
56817474,509
56827489,511
56837536,507
56847583,506
56857600,507
56867648,509
56877700,511
56887723,507
56897776,508
56907827,501
56917846,508
56927895,503
56937943,508
56947964,503
56958015,506
56968069,496
56978091,498
56988144,499
56998198,509
57008254,499
57018279,499
57028334,504
57038389,505
57048410,506
57058461,507
57068514,504
57078537,506
57088590,506
57098644,507
57108665,507
57118719,504
57128775,508
57138796,507
57148850,500
57158906,506
57168930,506
57178984,506
57189040,508
57199063,506
57209120,499
57219176,506
57229234,512
57239260,512
57249314,512
57259368,518
57269390,516
57279443,525
57289497,524
57299519,522
57309575,528
57319632,528
57329658,523
57339714,513
57349773,510
57359802,510
57369863,506
57379920,509
57389943,508
57399998,508
57410055,506
57420087,505
57430151,498
57440215,501
57450247,501
57460307,504
57470360,496
57480381,501
57490436,505
57500488,510
57510543,506
57520566,503
57530623,508
57540677,508
57550701,503
57560756,508
57570810,508
57580833,502
57590888,506
57600940,508
57610963,507
57621017,502
57631073,508
57641099,507
57651155,504
57661215,507
57671243,502
57681300,504
57691356,504
57701381,507
57711438,503
57721493,499
57731551,503
57741572,503
57751626,501
57761682,505
57771706,500
57781760,503
57791813,508
57801832,505
57811878,506
57821928,507
57831949,507
57842003,503
57852056,508
57862080,508
57872133,501
57882189,507
57892215,504
57902270,500
57912325,505
57922350,501
57932404,503
57942459,511
57952484,511
57962540,516
57972597,522
57982622,526
57992681,531
58002735,523
58012788,527
58022808,532
58032860,529
58042912,526
58052933,526
58062986,522
58073038,514
58083057,514
58093109,508
58103161,508
58113179,507
58123230,506
58133281,501
58143302,500
58153356,503
58163409,503
58173429,498
58183480,498
58193532,502
58203553,501
58213604,505
58223654,501
58233676,505
58243731,507
58253781,511
58263833,516
58273853,513
58283905,505
58293957,504
58303977,510
58314022,510
58324069,508
58334088,506
58344137,510
58354186,506
58364203,503
58374252,507
58384299,501
58394318,507
58404366,507
58414413,499
58424430,504
58434477,507
58444523,503
58454540,504
58464587,500
58474634,505
58484679,510
58494695,506
58504741,504
58514789,503
58524807,504
58534854,510
58544901,512
58554918,499
58564964,502
58575009,508
58585023,504
58595070,507
58605117,509
58615133,500
58625179,507
58635226,506
58645245,509
58655291,507
58665336,505
58675352,513
58685398,513
58695442,512
58705459,521
58715505,526
58725552,526
58735600,528
58745619,527
58755668,526
58765716,526
58775731,531
58785779,531
58795827,526
58805843,519
58815891,516
58825941,515
58835957,507
58846004,509
58856049,508
58866065,507
58876111,507
58886157,503
58896174,502
58906219,500
58916266,507
58926281,506
58936326,507
58946372,509
58956386,505
58966429,504
58976474,511
58986522,510
58996538,505
59006583,506
59016628,510
59026643,507
59036692,512
59046741,506
59056761,507
59066808,509
59076858,503
59086875,507
59096922,508
59106970,506
59116986,506
59127031,509
59137077,505
59147097,502
59157146,498
59167192,503
59177210,500
59187259,503
59197304,507
59207319,505
59217366,512
59227415,504
59237466,502
59247485,507
59257532,503
59267578,511
59277592,503
59287638,508
59297684,502
59307700,510
59317747,509
59327794,500
59337808,508
59347853,510
59357898,507
59367916,509
59377961,507
59388007,501
59398024,507
59408073,504
59418118,509
59428131,510
59438175,489
59448217,506
59458229,515
59468274,519
59478316,524
59488331,529
59498379,530
59508425,534
59518470,538
59528482,535
59538524,528
59548568,524
59558584,526
59568629,525
59578674,522
59588691,511
59598738,513
59608782,511
59618798,510
59628844,504
59638892,503
59648909,501
59658955,504
59669002,502
59679019,503
59689067,503
59699113,502
59709125,496
59719171,504
59729219,503
59739233,512
59749278,508
59759325,509
59769373,512
59779387,508
59789429,511
59799472,508
59809486,508
59819529,510
59829573,507
59839591,511
59849641,508
59859691,501
59869709,503
59879758,501
59889806,500
59899822,507
59909865,498
59919921,507
59929947,505
59940002,505
59950058,505
59960082,510
59970133,508
59980180,500
59990227,508
60000242,503
60010292,509
60020341,510
60030358,511
60040409,502
60050456,510
60060471,508
60070518,512
60080567,507
60090583,506
60100629,509
60110678,512
60120697,506
60130749,505
60140796,502
60150814,507
60160862,506
60170912,506
60180934,508
60190983,510
60201031,507
60211052,512
60221104,515
60231156,517
60241209,516
60251230,521
60261284,530
60271336,531
60281355,529
60291407,532
60301460,529
60311485,524
60321536,522
60331584,520
60341601,512
60351650,514
60361699,509
60371717,504
60381766,507
60391814,506
60401832,501
60411880,498
60421926,500
60431943,497
60441988,502
60452035,503
60462053,501
60472098,504
60482143,509
60492188,509
60502203,511
60512244,512
60522290,509
60532307,510
60542353,511
60552408,509
60562432,509
60572486,510
60582534,510
60592549,505
60602597,508
60612646,506
60622660,509
60632706,507
60642752,500
60652769,511
60662817,501
60672864,508
60682880,504
60692927,503
60702974,501
60712992,502
60723040,503
60733086,508
60743128,505
60753142,510
60763186,506
60773235,508
60783254,509
60793302,510
60803352,503
60813374,504
60823426,503
60833474,511
60843492,510
60853539,502
60863594,506
60873621,510
60883678,508
60893734,508
60903760,509
60913814,502
60923861,508
60933875,508
60943922,508
60953972,502
60963990,503
60974041,507
60984091,511
60994142,517
61004159,527
61014209,528
61024265,529
61034289,534
61044341,533
61054393,527
61064414,530
61074463,528
61084508,527
61094523,519
61104571,515
61114621,513
61124639,511
61134687,514
61144738,505
61154757,506
61164807,507
61174856,505
61184869,502
61194912,503
61204955,502
61214968,498
61225013,500
61235062,506
61245080,507
61255127,506
61265168,504
61275214,512
61285231,508
61295276,511
61305320,511
61315332,508
61325375,507
61335421,504
61345435,503
61355482,505
61365527,507
61375541,499
61385585,507
61395630,498
61405643,499
61415688,506
61425733,505
61435745,508
61445789,502
61455834,502
61465849,501
61475891,499
61485933,504
61495944,501
61505988,504
61516034,503
61526080,501
61536095,511
61546139,506
61556184,504
61566200,506
61576246,511
61586291,507
61596307,510
61606352,507
61616398,508
61626415,504
61636461,509
61646509,508
61656524,507
61666572,506
61676619,508
61686637,508
61696681,502
61706730,508
61716749,509
61726797,511
61736843,509
61746890,513
61756907,518
61766953,524
61776998,520
61787015,529
61797061,529
61807107,533
61817123,528
61827172,527
61837219,520
61847238,522
61857290,515
61867341,507
61877360,514
61887408,506
61897458,511
61907478,507
61917528,503
61927574,505
61937590,505
61947638,499
61957688,503
61967706,499
61977755,504
61987801,502
61997847,504
62007861,505
62017908,506
62027957,504
62037973,511
62048021,509
62058071,511
62068089,508
62078136,508
62088180,511
62098193,508
62108236,508
62118280,510
62128293,509
62138340,499
62148387,502
62158400,502
62168442,513
62178486,508
62188499,506
62198543,505
62208590,502
62218603,502
62228646,507
62238691,507
62248739,504
62258754,509
62268798,506
62278842,499
62288857,506
62298904,504
62308950,508
62318964,507
62329009,510
62339053,505
62349069,508
62359114,506
62369157,509
62379169,510
62389212,510
62399255,506
62409270,510
62419316,509
62429360,503
62439373,506
62449416,509
62459461,508
62469471,506
62479512,506
62489554,509
62499596,503
62509608,510
62519650,516
62529694,518
62539706,524
62549746,526
62559787,526
62569797,531
62579839,534
62589881,523
62599892,531
62609932,526
62619977,524
62629990,523
62640032,520
62650076,513
62660088,509
62670133,504
62680174,507
62690188,508
62700233,503
62710277,506
62720291,505
62730336,503
62740380,505
62750396,500
62760444,507
62770491,504
62780538,504
62790554,505
62800600,510
62810645,511
62820661,508
62830707,509
62840756,508
62850773,509
62860816,512
62870862,509
62880879,509
62890923,508
62900969,511
62910980,504
62921026,504
62931072,507
62941087,505
62951131,500
62961175,507
62971188,502
62981230,509
62991274,502
63001316,506
63011328,510
63021370,507
63031416,506
63041427,509
63051469,510
63061511,509
63071523,506
63081567,508
63091612,503
63101631,503
63111680,508
63121724,511
63131740,509
63141783,505
63151829,507
63161845,508
63171890,508
63181936,505
63191952,510
63201997,507
63212038,504
63222048,507
63232092,502
63242135,504
63252178,501
63262188,510
63272229,509
63282270,504
63292286,515
63302332,519
63312374,515
63322389,526
63332434,530
63342481,525
63352494,527
63362541,532
63372589,528
63382606,523
63392651,521
63402697,518
63412712,518
63422757,516
63432802,514
63442815,512
63452857,502
63462896,509
63472905,500
63482948,504
63492993,503
63503008,497
63513053,502
63523100,494
63533146,505
63543161,504
63553204,508
63563245,503
63573258,500
63583299,512
63593335,513
63603344,508
63613385,512
63623424,513
63633436,513
63643478,510
63653522,506
63663529,509
63673567,504
63683610,510
63693624,502
63703666,502
63713705,507
63723714,502
63733757,506
63743800,508
63753844,508
63763856,508
63773899,502
63783943,504
63793954,502
63803996,507
63814032,510
63824042,503
63834085,511
63844130,501
63854144,506
63864191,509
63874237,510
63884247,511
63894289,507
63904331,503
63914346,506
63924394,509
63934442,508
63944460,509
63954510,505
63964559,501
63974573,507
63984618,510
63994665,506
64004718,506
64014735,507
64024776,506
64034821,508
64044835,508
64054881,511
64064928,512
64074945,520
64084987,517
64095029,519
64105041,524
64115082,527
64125122,533
64135135,532
64145177,531
64155219,530
64165231,527
64175272,527
64185313,519
64195322,515
64205364,514
64215407,515
64225416,505
64235455,508
64245498,510
64255509,510
64265549,500
64275589,500
64285628,500
64295638,501
64305682,506
64315728,500
64325738,504
64335780,505
64345823,503
64355834,508
64365875,509
64375913,509
64385924,507
64395966,510
64406008,509
64416023,508
64426068,510
64436112,510
64446127,506
64456173,505
64466219,503
64476233,502
64486277,503
64496318,506
64506361,502
64516375,503
64526423,503
64536466,505
64546480,508
64556527,507
64566573,506
64576591,504
64586636,505
64596677,506
64606687,506
64616730,508
64626774,505
64636787,508
64646827,507
64656867,501
64666880,505
64676922,503
64686964,509
64696976,509
64707019,509
64717062,503
64727073,502
64737114,505
64747156,510
64757199,505
64767213,507
64777257,508
64787299,504
64797313,509
64807358,504
64817401,499
64827417,505
64837462,505
64847512,510
64857533,511
64867587,513
64877637,510
64887655,516
64897702,518
64907752,528
64917772,528
64927819,527
64937863,525
64947875,530
64957919,527
64967960,528
64977972,526
64988018,524
64998066,518
65008113,515
65018128,512
65028174,512
65038220,506
65048232,510
65058275,504
65068313,504
65078324,507
65088366,506
65098407,504
65108419,500
65118464,497
65128515,507
65138525,501
65148568,503
65158607,507
65168618,510
65178663,511
65188709,504
65198722,508
65208767,510
65218810,502
65228821,509
65238865,510
65248910,504
65258924,509
65268962,501
65278999,505
65289042,507
65299056,509
65309102,502
65319147,506
65329159,506
65339203,504
65349245,505
65359256,504
65369301,508
65379345,508
65389362,509
65399410,503
65409458,508
65419472,509
65429519,510
65439568,507
65449585,503
65459634,505
65469678,507
65479691,507
65489738,509
65499783,508
65509798,509
65519843,508
65529890,507
65539936,508
65549953,508
65560001,504
65570047,507
65580061,508
65590106,499
65600150,503
65610164,507
65620208,508
65630251,503
65640263,506
65650307,505
65660349,503
65670359,506
65680400,510
65690439,510
65700447,506
65710490,514
65720533,509
65730544,520
65740588,519
65750630,525
65760638,527
65770679,530
65780718,526
65790760,524
65800771,530
65810815,526
65820859,520
65830866,513
65840912,509
65850956,508
65860970,513
65871008,510
65881051,509
65891063,510
65901106,506
65911152,507
65921164,506
65931207,497
65941253,503
65951268,500
65961312,507
65971358,505
65981373,506
65991420,503
66001468,509
66011482,508
66021526,512
66031571,508
66041617,512
66051631,509
66061674,514
66071717,509
66081730,507
66091773,504
66101812,507
66111824,501
66121863,503
66131905,508
66141916,506
66151960,504
66162001,504
66172009,505
66182047,507
66192088,507
66202092,509
66212133,500
66222177,501
66232191,505
66242233,510
66252277,500
66262288,505
66272331,511
66282375,505
66292420,508
66302434,510
66312481,508
66322529,503
66332549,501
66342599,501
66352653,502
66362678,503
66372735,508
66382787,507
66392807,505
66402856,506
66412906,506
66422926,503
66432979,509
66443034,509
66453055,503
66463108,506
66473155,513
66483170,503
66493217,507
66503261,517
66513276,522
66523318,518
66533362,522
66543409,526
66553423,522
66563471,527
66573519,519
66583536,519
66593581,523
66603626,517
66613642,513
66623690,508
66633737,512
66643751,508
66653800,507
66663848,508
66673865,507
66683909,505
66693955,503
66703970,508
66714017,503
66724062,504
66734077,506
66744125,498
66754175,507
66764190,508
66774231,511
66784276,511
66794323,506
66804341,508
66814390,512
66824439,507
66834458,512
66844507,511
66854557,506
66864572,509
66874618,511
66884660,508
66894672,508
66904715,506
66914757,506
66924770,506
66934814,502
66944858,508
66954871,503
66964916,506
66974963,505
66984977,506
66995023,508
67005067,509
67015110,509
67025122,507
67035166,509
67045209,508
67055225,506
67065269,508
67075309,503
67085323,502
67095368,512
67105413,514
67115430,506
67125477,508
67135525,508
67145541,511
67155588,506
67165634,503
67175643,507
67185687,507
67195731,510
67205745,509
67215788,509
67225830,507
67235844,503
67245888,504
67255933,503
67265973,513
67275986,517
67286029,517
67296072,520
67306085,518
67316132,524
67326176,525
67336192,530
67346237,524
67356282,530
67366293,519
67376335,520
67386377,513
67396392,519
67406436,509
67416481,510
67426493,506
67436540,503
67446587,504
67456604,502
67466650,505
67476699,502
67486717,507
67496763,502
67506808,499
67516853,506
67526865,506
67536911,503
67546953,509
67556965,511
67567005,506
67577047,513
67587058,511
67597098,511
67607137,504
67617146,511
67627191,502
67637236,510
67647249,504
67657293,509
67667334,508
67677343,508
67687380,507
67697420,505
67707428,508
67717469,503
67727509,506
67737519,507
67747562,507
67757602,510
67767613,508
67777655,503
67787696,509
67797740,510
67807752,502
67817794,503
67827835,508
67837846,506
67847889,509
67857929,510
67867941,511
67877984,510
67888025,511
67898036,502
67908080,504
67918125,505
67928139,503
67938182,511
67948223,509
67958237,504
67968282,509
67978325,508
67988338,511
67998380,505
68008422,509
68018432,511
68028476,514
68038519,515
68048558,518
68058566,519
68068608,527
68078648,528
68088657,532
68098697,525
68108739,529
68118749,529
68128789,525
68138831,522
68148841,519
68158885,515
68168926,512
68178936,512
68188979,506
68199021,505
68209032,507
68219073,502
68229116,497
68239128,504
68249170,503
68259210,506
68269221,502
68279261,508
68289300,506
68299337,511
68309345,506
68319386,503
68329425,512
68339433,503
68349468,513
68359504,510
68369513,512
68379553,505
68389590,510
68399599,506
68409634,508
68419672,500
68429679,505
68439715,505
68449754,502
68459765,508
68469809,508
68479852,504
68489863,506
68499904,510
68509945,504
68519988,509
68530002,507
68540047,502
68550092,506
68560105,507
68570146,503
68580190,510
68590201,510
68600245,510
68610290,507
68620305,510
68630346,502
68640385,504
68650396,508
68660434,509
68670473,504
68680482,510
68690522,509
68700561,508
68710571,503
68720611,504
68730654,506
68740665,508
68750703,508
68760741,507
68770782,511
68780792,513
68790832,520
68800881,523
68810896,524
68820932,526
68830970,524
68840980,529
68851022,525
68861062,527
68871072,524
68881111,520
68891147,517
68901152,516
68911188,514
68921227,504
68931238,510
68941282,504
68951327,504
68961339,500
68971380,498
68981424,504
68991439,501
69001482,505
69011525,506
69021569,512
69031577,504
69041616,507
69051658,505
69061670,512
69071711,511
69081754,508
69091766,503
69101810,510
69111853,510
69121861,509
69131901,507
69141941,501
69151954,505
69161997,503
69172043,505
69182054,508
69192096,505
69202140,501
69212156,505
69222202,507
69232249,506
69242262,509
69252308,515
69262350,502
69272362,506
69282403,501
69292446,511
69302490,510
69312502,502
69322546,505
69332592,507
69342605,512
69352648,510
69362691,507
69372703,503
69382748,510
69392793,512
69402806,508
69412851,507
69422893,507
69432907,508
69442954,507
69452998,509
69463015,500
69473059,508
69483104,508
69493121,509
69503165,516
69513212,518
69523254,523
69533263,524
69543306,523
69553353,528
69563368,527
69573414,527
69583458,523
69593471,526
69603519,522
69613567,518
69623586,517
69633635,511
69643681,509
69653695,509
69663740,504
69673784,502
69683801,496
69693846,496
69703891,494
69713906,495
69723952,500
69733998,500
69744013,498
69754058,503
69764106,510
69774155,508
69784173,504
69794223,512
69804272,512
69814289,513
69824331,512
69834381,512
69844398,508
69854446,505
69864495,508
69874512,509
69884558,507
69894605,504
69904620,508
69914665,505
69924709,502
69934725,506
69944773,503
69954820,497
69964836,502
69974879,502
69984918,505
69994930,498
70004973,501
70015019,506
70025033,505
70035075,501
70045122,505
70055165,501
70065179,508
70075223,510
70085265,504
70095276,509
70105316,502
70115362,509
70125380,507
70135424,508
70145467,507
70155477,502
70165518,505
70175562,507
70185576,502
70195621,511
70205666,510
70215681,512
70225722,513
70235769,518
70245782,515
70255822,523
70265869,528
70275885,518
70285931,520
70295976,524
70306023,523
70316036,530
70326080,526
70336125,525
70346140,522
70356187,519
70366236,512
70376250,512
70386296,503
70396343,505
70406359,506
70416407,505
70426454,502
70436469,504
70446515,502
70456562,498
70466579,504
70476623,506
70486669,506
70496681,510
70506725,511
70516769,509
70526814,509
70536828,507
70546869,503
70556917,504
70566934,505
70576979,509
70587024,505
70597034,503
70607079,506
70617125,505
70627136,510
70637178,505
70647219,509
70657231,507
70667272,506
70677313,502
70687325,501
70697372,504
70707417,500
70717431,503
70727475,502
70737519,504
70747530,511
70757573,510
70767619,510
70777662,507
70787674,511
70797717,505
70807756,512
70817766,504
70827803,508
70837846,510
70847858,509
70857898,509
70867940,504
70877952,505
70887994,504
70898041,512
70908054,508
70918097,510
70928140,514
70938152,526
70948198,523
70958242,527
70968252,526
70978298,521
70988341,522
70998350,523
71008392,522
71018437,520
71028483,517
71038498,508
71048544,510
71058590,509
71068607,505
71078651,502
71088698,503
71098713,503
71108758,507
71118801,503
71128812,503
71138851,502
71148892,499
71158902,504
71168944,506
71178985,503
71188996,503
71199033,512
71209074,504
71219089,508
71229131,513
71239174,509
71249186,513
71259231,511
71269273,508
71279314,506
71289325,508
71299365,501
71309408,505
71319421,503
71329467,499
71339510,507
71349524,503
71359571,503
71369609,503
71379618,501
71389663,504
71399706,507
71409722,506
71419767,499
71429812,508
71439823,510
71449865,510
71459912,504
71469928,502
71479974,509
71490019,510
71500031,504
71510072,508
71520116,504
71530131,509
71540176,506
71550225,510
71560273,505
71570290,507
71580340,515
71590391,518
71600408,520
71610455,526
71620501,526
71630517,529
71640562,533
71650609,523
71660626,529
71670674,524
71680718,516
71690733,515
71700782,516
71710830,516
71720846,513
71730890,507
71740933,510
71750949,502
71760997,510
71771044,499
71781092,508
71791109,498
71801156,505
71811205,507
71821226,496
71831276,505
71841324,502
71851343,504
71861391,505
71871439,505
71881451,510
71891497,512
71901541,507
71911557,506
71921604,511
71931652,501
71941669,507
71951712,510
71961758,506
71971772,505
71981817,502
71991859,496
72001872,505
72011917,504
72021961,506
72032006,508
72042022,508
72052068,503
72062112,503
72072125,505
72082171,505
72092217,508
72102235,512
72112281,509
72122330,508
72132348,510
72142399,508
72152447,507
72162464,508
72172507,509
72182547,506
72192558,505
72202602,510
72212645,500
72222657,507
72232703,505
72242747,508
72252760,512
72262804,515
72272845,514
72282887,523
72292899,526
72302944,520
72312991,527
72323004,525
72333052,525
72343097,521
72353113,526
72363161,521
72373208,518
72383225,519
72393272,513
72403316,509
72413330,512
72423375,509
72433419,507
72443432,500
72453477,506
72463518,504
72473530,501
72483575,503
72493623,504
72503642,503
72513684,503
72523727,502
72533739,506
72543780,503
72553826,504
72563870,511
72573881,507
72583922,502
72593966,510
72603980,509
72614024,507
72624066,507
72634081,501
72644125,509
72654169,510
72664182,507
72674222,504
72684261,507
72694268,502
72704310,503
72714353,507
72724363,505
72734406,498
72744447,500
72754458,498
72764498,509
72774539,502
72784553,505
72794600,508
72804642,504
72814684,508
72824691,507
72834731,508
72844773,502
72854786,507
72864831,505
72874876,505
72884890,500
72894936,509
72904980,507
72914992,506
72925035,507
72935076,509
72945086,509
72955130,516
72965173,517
72975187,525
72985231,525
72995276,528
73005289,531
73015327,527
73025366,527
73035407,527
73045415,525
73055455,523
73065495,517
73075506,514
73085542,509
73095582,504
73105595,508
73115640,506
73125684,502
73135697,505
73145741,500
73155785,500
73165803,503
73175850,497
73185895,503
73195911,505
73205956,501
73215999,509
73226015,510
73236060,512
73246106,505
73256116,503
73266159,503
73276206,511
73286220,502
73296266,509
73306312,505
73316357,501
73326373,510
73336422,504
73346467,506
73356481,507
73366528,505
73376574,497
73386589,506
73396635,507
73406682,505
73416697,505
73426745,502
73436793,503
73446811,508
73456857,506
73466906,504
73476920,508
73486968,509
73497016,505
73507030,504
73517076,509
73527125,508
73537140,508
73547186,511
73557232,508
73567277,503
73577291,507
73587334,504
73597378,510
73607391,510
73617433,505
73627477,507
73637491,504
73647535,506
73657579,503
73667592,509
73677640,512
73687686,518
73697701,524
73707747,522
73717794,531
73727809,525
73737853,527
73747897,531
73757911,526
73767957,524
73778004,520
73788051,509
73798067,515
73808113,512
73818160,507
73828176,499
73838220,505
73848264,503
73858281,506
73868327,499
73878374,505
73888390,499
73898437,507
73908483,502
73918501,510
73928550,503
73938601,510
73948617,506
73958663,508
73968706,512
73978725,511
73988777,506
73998829,503
74008847,505
74018899,503
74028953,508
74039001,506
74049013,504
74059052,506
74069087,505
74079093,497
74089130,502
74099166,500
74109172,504
74119211,498
74129247,502
74139256,502
74149298,504
74159341,504
74169350,503
74179394,502
74189441,508
74199454,501
74209495,506
74219542,509
74229555,504
74239601,503
74249647,510
74259660,502
74269704,508
74279750,508
74289794,506
74299811,508
74309861,506
74319910,509
74329926,505
74339973,502
74350019,508
74360033,507
74370079,500
74380124,502
74390140,512
74400187,513
74410235,514
74420251,520
74430298,522
74440344,522
74450358,528
74460402,527
74470452,528
74480469,529
74490516,526
74500564,522
74510581,519
74520630,519
74530678,514
74540694,509
74550743,505
74560791,501
74570836,506
74580852,505
74590900,502
74600947,500
74610962,497
74621006,501
74631047,504
74641060,504
74651110,508
74661158,506
74671175,505
74681221,508
74691262,514
74701272,506
74711312,509
74721348,510
74731352,504
74741391,504
74751430,509
74761440,510
74771481,505
74781523,508
74791565,507
74801580,502
74811625,505
74821669,505
74831680,504
74841725,498
74851770,503
74861778,500
74871820,505
74881863,502
74891875,504
74901916,498
74911957,500
74921964,506
74932004,497
74942045,503
74952057,508
74962102,501
74972145,504
74982155,506
74992198,500
75002239,507
75012250,505
75022290,505
75032330,504
75042371,509
75052381,505
75062422,505
75072462,506
75082471,505
75092514,505
75102558,506
75112571,510
75122614,512
75132656,510
75142669,514
75152715,513
75162757,520
75172771,522
75182817,525
75192856,528
75202871,532
75212916,529
75222960,524
75232974,527
75243015,524
75253057,519
75263068,512
75273111,516
75283151,510
75293162,508
75303208,505
75313254,498
75323303,503
75333319,500
75343366,503
75353411,503
75363427,502
75373473,503
75383520,508
75393533,499
75403580,507
75413625,510
75423642,507
75433683,512
75443722,512
75453736,514
75463782,509
75473829,514
75483844,508
75493889,510
75503936,510
75513952,507
75524000,510
75534044,509
75544086,507
75554099,508
75564145,507
75574191,503
75584204,502
75594245,504
75604288,504
75614301,503
75624346,508
75634390,507
75644404,503
75654449,510
75664494,503
75674508,510
75684555,505
75694601,508
75704616,510
75714662,504
75724711,511
75734729,502
75744778,501
75754827,510
75764844,509
75774885,510
75784930,508
75794946,508
75804991,504
75815035,510
75825078,510
75835092,509
75845131,515
75855168,519
75865175,516
75875214,526
75885253,524
75895259,529
75905300,533
75915341,520
75925351,530
75935392,521
75945431,519
75955435,523
75965474,518
75975511,508
75985518,510
75995554,509
76005590,507
76015600,498
76025638,504
76035678,501
76045686,496
76055722,496
76065762,503
76075801,502
76085809,504
76095845,501
76105885,508
76115894,512
76125931,512
76135969,512
76145976,512
76156016,508
76166054,516
76176060,512
76186098,510
76196138,510
76206146,511
76216187,510
76226229,503
76236239,506
76246281,508
76256321,499
76266330,504
76276371,503
76286413,505
76296424,502
76306467,505
76316508,503
76326552,502
76336562,507
76346604,502
76356647,505
76366655,509
76376694,508
76386733,510
76396742,508
76406784,508
76416825,504
76426838,505
76436881,502
76446921,506
76456933,508
76466976,500
76477018,505
76487030,507
76497073,508
76507117,508
76517132,513
76527175,509
76537221,518
76547235,521
76557279,524
76567325,523
76577369,532
76587380,533
76597424,538
76607467,533
76617482,534
76627526,531
76637567,520
76647578,521
76657621,521
76667666,510
76677680,511
76687725,511
76697772,511
76707788,506
76717835,502
76727882,504
76737899,506
76747946,504
76757994,501
76768012,500
76778063,505
76788111,504
76798126,506
76808173,510
76818215,503
76828257,512
76838271,512
76848314,510
76858356,510
76868372,509
76878417,512
76888463,501
76898473,501
76908517,507
76918561,508
76928571,508
76938616,504
76948659,507
76958673,503
76968717,504
76978763,503
76988777,502
76998822,504
77008867,504
77018879,503
77028922,504
77038968,505
77049012,505
77059024,508
77069065,503
77079110,502
77089129,497
77099182,502
77109232,508
77119243,500
77129287,508
77139332,505
77149345,505
77159388,508
77169433,506
77179447,502
77189492,504
77199538,509
77209550,510
77219593,511
77229640,507
77239655,517
77249700,522
77259748,525
77269764,531
77279811,530
77289857,536
77299902,530
77309918,529
77319961,526
77330006,521
77340023,520
77350068,520
77360113,514
77370124,513
77380167,510
77390208,500
77400223,507
77410270,504
77420317,501
77430331,497
77440378,498
77450426,504
77460439,503
77470486,501
77480530,508
77490543,502
77500589,503
77510632,509
77520647,504
77530691,503
77540735,506
77550779,505
77560793,515
77570837,512
77580881,507
77590896,509
77600942,511
77610990,507
77621006,507
77631053,506
77641099,506
77651117,508
77661167,505
77671211,504
77681226,506
77691271,506
77701315,505
77711327,502
77721366,499
77731414,508
77741426,503
77751468,511
77761512,504
77771523,507
77781566,505
77791606,508
77801647,500
77811659,508
77821700,502
77831742,508
77841752,508
77851795,510
77861840,509
77871853,501
77881898,507
77891942,504
77901954,504
77911996,509
77922034,504
77932042,504
77942082,503
77952121,515
77962133,515
77972178,516
77982220,525
77992233,526
78002278,531
78012321,529
78022334,530
78032376,531
78042417,526
78052457,525
78062466,515
78072509,518
78082552,517
78092562,509
78102605,510
78112648,504
78122663,504
78132706,504
78142750,502
78152766,497
78162812,502
78172858,495
78182872,499
78192914,504
78202958,509
78212973,504
78223020,508
78233064,509
78243076,507
78253121,510
78263166,513
78273179,513
78283223,512
78293267,511
78303311,509
78313326,509
78323371,510
78333414,503
78343429,508
78353474,501
78363517,504
78373531,507
78383575,506
78393616,502
78403631,505
78413675,508
78423719,507
78433735,506
78443783,506
78453829,502
78463843,510
78473889,501
78483935,508
78493949,505
78503994,501
78514041,512
78524060,507
78534109,507
78544157,508
78554167,501
78564210,508
78574251,498
78584300,503
78594311,505
78604353,500
78614394,508
78624404,503
78634452,499
78644499,501
78654514,509
78664559,504
78674603,511
78684617,512
78694660,518
78704707,524
78714719,520
78724762,523
78734808,523
78744822,532
78754868,532
78764913,526
78774928,519
78784971,521
78795011,515
78805053,516
78815065,509
78825109,510
78835152,505
78845166,502
78855210,498
78865255,497
78875268,496
78885315,500
78895359,503
78905374,503
78915417,505
78925462,504
78935480,499
78945521,505
78955566,506
78965579,506
78975625,511
78985671,511
78995688,511
79005734,510
79015783,503
79025802,506
79035851,512
79045900,505
79055948,508
79065964,508
79076009,504
79086050,504
79096063,506
79106110,501
79116156,500
79126170,505
79136213,503
79146254,499
79156263,506
79166304,500
79176345,506
79186354,499
79196394,504
79206434,499
79216446,506
79226490,502
79236534,502
79246545,503
79256589,509
79266628,508
79276639,506
79286681,503
79296723,498
79306734,503
79316775,507
79326816,507
79336859,506
79346871,507
79356911,507
79366958,509
79376973,501
79387017,505
79397059,508
79407071,508
79417115,510
79427159,512
79437170,519
79447212,521
79457252,523
79467264,530
79477308,525
79487352,531
79497363,530
79507406,527
79517448,526
79527458,520
79537501,518
79547545,514
79557560,502
79567603,503
79577646,504
79587692,508
79597708,503
79607754,505
79617799,502
79627816,496
79637865,504
79647910,505
79657917,504
79667959,504
79678004,501
79688018,508
79698060,510
79708105,507
79718118,510
79728165,510
79738211,509
79748225,514
79758270,506
79768316,511
79778332,509
79788378,510
79798422,511
79808471,509
79818489,504
79828537,506
79838585,509
79848604,503
79858654,504
79868708,504
79878730,501
79888782,507
79898832,509
79908850,503
79918899,500
79928949,507
79938963,508
79949012,509
79959063,502
79969085,507
79979137,507
79989186,505
79999206,504
80009258,506
80019309,510
80029327,505
80039376,503
80049426,511
80059478,501
80069502,508
80079553,510
80089603,507
80099623,509
80109672,508
80119721,503
80129740,511
80139791,513
80149842,521
80159859,526
80169907,520
80179958,528
80189974,529
80200021,523
80210067,526
80220084,519
80230135,521
80240183,518
80250199,516
80260244,506
80270290,507
80280306,506
80290353,503
80300401,502
80310449,500
80320467,504
80330516,500
80340567,504
80350584,504
80360631,497
80370676,498
80380693,505
80390739,506
80400783,506
80410799,508
80420846,506
80430892,508
80440906,510
80450948,509
80460993,511
80471008,504
80481058,513
80491107,507
80501122,507
80511167,510
80521210,506
80531228,505
80541276,508
80551326,499
80561376,507
80571396,510
80581447,499
80591496,504
80601516,501
80611567,508
80621619,507
80631633,507
80641678,507
80651726,504
80661740,511
80671786,507
80681832,508
80691847,508
80701892,502
80711938,509
80721951,505
80731995,505
80742039,501
80752055,499
80762099,508
80772143,511
80782158,508
80792203,510
80802252,516
80812300,516
80822312,518
80832359,524
80842404,524
80852422,531
80862470,526
80872517,533
80882536,529
80892581,523
80902624,524
80912636,523
80922681,514
80932727,515
80942742,510
80952787,507
80962833,502
80972848,507
80982891,507
80992932,501
81002942,499
81012985,506
81023030,503
81033044,504
81043089,507
81053134,507
81063178,505
81073195,503
81083241,505
81093288,510
81103302,510
81113346,507
81123392,508
81133408,507
81143458,502
81153507,509
81163522,506
81173566,505
81183609,504
81193622,492
81203672,505
81213721,500
81223741,508
81233791,503
81243841,507
81253859,501
81263909,503
81273961,508
81283980,505
81294028,502
81304077,507
81314128,504
81324146,509
81334194,502
81344243,508
81354263,507
81364313,505
81374361,509
81384378,508
81394427,508
81404476,508
81414494,507
81424542,504
81434589,507
81444608,506
81454658,507
81464708,511
81474726,512
81484771,517
81494816,523
81504830,526
81514878,530
81524922,525
81534938,534
81544983,530
81555029,530
81565080,531
81575097,524
81585145,515
81595193,514
81605212,511
81615260,515
81625311,513
81635333,509
81645385,509
81655439,501
81665460,505
81675512,505
81685562,502
81695583,502
81705632,506
81715680,502
81725698,503
81735748,499
81745798,503
81755821,502
81765876,513
81775935,512
81785962,498
81796021,505
81806082,503
81816145,512
81826175,505
81836235,509
81846293,508
81856315,512
81866368,512
81876418,514
81886438,503
81896489,506
81906545,503
81916568,506
81926621,510
81936671,500
81946692,509
81956742,508
81966793,504
81976813,505
81986860,501
81996908,499
82006928,499
82016977,502
82027025,500
82037042,506
82047091,506
82057139,499
82067186,509
82077201,504
82087250,505
82097298,499
82107313,500
82117358,502
82127406,506
82137419,509
82147465,502
82157513,506
82167532,515
82177583,515
82187634,515
82197652,526
82207702,530
82217752,528
82227773,525
82237823,530
82247874,530
82257891,528
82267935,525
82277986,520
82288007,512
82298058,512
82308111,512
82318163,514
82328183,508
82338231,504
82348282,504
82358303,506
82368354,497
82378404,502
82388423,505
82398473,502
82408523,496
82418545,506
82428597,502
82438649,501
82448670,511
82458723,509
82468773,513
82478788,507
82488832,505
82498875,512
82508894,511
82518943,510
82528995,502
82539016,507
82549068,501
82559117,502
82569133,509
82579182,506
82589233,507
82599278,499
82609296,504
82619344,502
82629392,504
82639405,509
82649450,503
82659494,510
82669509,502
82679556,507
82689605,510
82699622,507
82709668,503
82719716,511
82729731,504
82739776,506
82749822,508
82759836,505
82769883,501
82779927,508
82789942,503
82799987,506
82810029,506
82820042,506
82830082,508
82840124,500
82850167,504
82860180,505
82870227,503
82880271,513
82890282,515
82900325,520
82910369,521
82920386,523
82930431,532
82940475,529
82950487,527
82960529,531
82970572,527
82980586,520
82990630,516
83000675,520
83010689,513
83020731,507
83030775,511
83040792,507
83050838,504
83060883,508
83070929,504
83080941,502
83090983,504
83101025,495
83111037,504
83121077,506
83131118,504
83141128,505
83151172,506
83161219,500
83171230,508
83181271,507
83191315,508
83201331,510
83211375,501
83221418,500
83231428,507
83241470,503
83251511,506
83261523,507
83271566,499
83281610,503
83291625,503
83301669,500
83311712,505
83321726,505
83331769,502
83341814,504
83351859,505
83361873,508
83371917,505
83381961,502
83391972,500
83402014,509
83412057,507
83422070,507
83432117,505
83442164,505
83452176,509
83462219,507
83472264,508
83482278,504
83492326,504
83502370,504
83512380,503
83522422,504
83532463,504
83542476,499
83552521,499
83562567,503
83572580,499
83582625,500
83592672,494
83602717,504
83612728,503
83622772,509
83632815,514
83642829,513
83652874,520
83662916,522
83672928,519
83682970,525
83693013,521
83703023,519
83713066,522
83723110,516
83733122,511
83743166,515
83753209,514
83763224,508
83773271,506
83783318,505
83793335,507
83803381,505
83813431,500
83823449,505
83833495,504
83843538,506
83853584,509
83863601,508
83873648,513
83883693,511
83893705,512
83903752,513
83913800,512
83923817,513
83933866,509
83943913,509
83953930,514
83963980,506
83974022,513
83984036,510
83994084,503
84004130,509
84014147,511
84024194,504
84034240,501
84044255,508
84054300,504
84064346,501
84074394,506
84084408,505
84094451,508
84104499,507
84114518,501
84124568,509
84134619,506
84144639,508
84154691,507
84164742,506
84174759,502
84184808,506
84194855,505
84204871,499
84214918,503
84224962,506
84234978,509
84245023,502
84255070,500
84265085,503
84275129,504
84285172,506
84295186,502
84305236,506
84315279,502
84325290,510
84335333,514
84345379,515
84355427,525
84365443,519
84375489,529
84385537,534
84395554,523
84405601,534
84415646,531
84425664,526
84435713,520
84445761,518
84455775,515
84465819,513
84475865,505
84485880,508
84495927,500
84505975,497
84515991,500
84526036,505
84536078,493
84546091,501
84556134,501
84566176,500
84576220,503
84586236,502
84596284,505
84606329,502
84616343,504
84626388,503
84636436,508
84646451,509
84656496,510
84666543,492
84676559,497
84686608,501
84696657,499
84706677,504
84716725,503
84726773,507
84736793,508
84746841,508
84756890,507
84766910,511
84776961,503
84787010,504
84797026,504
84807073,504
84817126,508
84827146,508
84837196,505
84847245,508
84857295,505
84867314,503
84877364,507
84887414,502
84897434,502
84907484,505
84917534,508
84927551,509
84937604,506
84947656,502
84957672,501
84967718,509
84977765,507
84987782,504
84997829,501
85007876,508
85017896,501
85027945,507
85037995,507
85048015,512
85058067,520
85068118,519
85078168,523
85088188,522
85098238,531
85108286,528
85118302,534
85128347,529
85138393,520
85148410,526
85158459,521
85168506,520
85178523,516
85188569,512
85198615,511
85208631,500
85218680,504
85228727,502
85238744,498
85248790,503
85258837,506
85268854,505
85278901,499
85288949,508
85298965,500
85309010,506
85319057,512
85329076,511
85339127,505
85349177,509
85359226,512
85369244,507
85379291,511
85389334,512
85399353,511
85409400,511
85419449,506
85429468,506
85439516,503
85449565,504
85459582,506
85469629,500
85479675,507
85489688,502
85499734,508
85509776,504
85519790,511
85529837,506
85539885,506
85549899,512
85559945,509
85569992,510
85580008,503
85590054,508
85600099,511
85610143,506
85620158,506
85630205,511
85640255,501
85650272,507
85660321,510
85670363,508
85680377,510
85690424,502
85700470,504
85710486,505
85720535,507
85730582,513
85740598,521
85750648,528
85760694,525
85770710,531
85780761,533
85790807,534
85800825,530
85810874,532
85820921,522
85830966,523
85840983,520
85851029,517
85861075,514
85871089,514
85881133,511
85891178,505
85901186,505
85911232,507
85921274,496
85931284,499
85941325,503
85951366,497
85961380,507
85971426,503
85981472,503
85991487,510
86001531,504
86011574,503
86021586,501
86031632,512
86041679,513
86051698,512
86061746,511
86071794,510
86081838,512
86091852,507
86101895,507
86111942,509
86121959,501
86132005,505
86142052,505
86152065,501
86162113,504
86172162,508
86182181,503
86192232,493
86202280,495
86212294,506
86222340,506
86232388,508
86242405,500
86252451,509
86262498,504
86272513,512
86282559,509
86292606,511
86302619,509
86312661,504
86322702,500
86332714,503
86342758,510
86352802,511
86362848,506
86372863,503
86382911,510
86392956,511
86402974,515
86413019,515
86423063,524
86433080,527
86443124,526
86453170,534
86463188,530
86473236,527
86483285,524
86493302,526
86503349,526
86513397,513
86523412,520
86533458,508
86543501,506
86553515,508
86563563,503
86573612,504
86583662,504
86593682,502
86603731,504
86613782,496
86623801,503
86633849,505
86643895,507
86653912,500
86663958,506
86674004,509
86684018,503
86694057,510
86704099,505
86714113,510
86724157,506
86734202,518
86744216,512
86754261,511
86764307,503
86774323,510
86784369,505
86794414,502
86804429,505
86814474,504
86824517,501
86834556,506
86844562,500
86854604,506
86864649,505
86874660,504
86884707,499
86894756,502
86904775,505
86914820,506
86924862,502
86934871,506
86944912,504
86954954,504
86964965,509
86975007,505
86985053,508
86995068,501
87005112,500
87015156,507
87025171,500
87035218,504
87045264,501
87055280,505
87065325,499
87075370,507
87085417,507
87095431,507
87105479,514
87115527,514
87125547,514
87135596,524
87145644,523
87155660,529
87165709,529
87175759,531
87185779,525
87195829,527
87205877,524
87215897,524
87225946,515
87235996,516
87246011,513
87256058,512
87266107,508
87276122,502
87286167,506
87296211,504
87306223,502
87316271,497
87326316,496
87336363,498
87346381,500
87356430,499
87366479,499
87376495,506
87386541,503
87396588,510
87406605,505
87416652,508
87426701,512
87436719,514
87446767,509
87456814,512
87466830,507
87476876,503
87486924,503
87496943,508
87506990,508
87517038,505
87527053,497
87537098,503
87547146,504
87557163,502
87567212,504
87577259,502
87587305,508
87597325,501
87607374,506
87617420,499
87627435,505
87637477,507
87647523,506
87657537,505
87667585,508
87677634,506
87687652,507
87697702,506
87707752,506
87717771,508
87727822,509
87737876,508
87747897,506
87757947,504
87768000,507
87778022,511
87788073,509
87798125,512
87808145,512
87818198,517
87828250,524
87838268,526
87848318,524
87858364,529
87868413,532
87878434,529
87888483,525
87898533,519
87908550,519
87918595,520
87928642,517
87938660,508
87948710,508
87958759,499
87968776,501
87978823,503
87988874,495
87998889,498
88008936,504
88018984,497
88029003,493
88039053,501
88049099,504
88059117,497
88069167,505
88079215,507
88089258,500
88099277,502
88109324,510
88119373,507
88129389,504
88139435,509
88149479,507
88159495,504
88169537,508
88179582,505
88189596,508
88199644,507
88209690,504
88219710,501
88229757,502
88239805,501
88249823,506
88259871,507
88269919,503
88279936,505
88289982,501
88300028,504
88310045,504
88320095,507
88330140,505
88340155,502
88350204,508
88360251,510
88370300,501
88380317,502
88390361,504
88400407,501
88410425,508
88420471,505
88430518,505
88440535,508
88450584,505
88460626,499
88470641,501
88480689,511
88490738,510
88500758,509
88510808,512
88520862,512
88530886,520
88540938,521
88550991,528
88561016,533
88571069,534
88581126,530
88591150,536
88601199,527
88611250,522
88621299,522
88631321,517
88641371,514
88651424,511
88661445,512
88671498,510
88681551,504
88691574,499
88701629,502
88711684,495
88721708,494
88731759,502
88741810,500
88751826,503
88761872,500
88771919,501
88781936,507
88791983,506
88802030,509
88812046,512
88822093,510
88832140,503
88842189,509
88852203,508
88862251,507
88872298,502
88882317,502
88892369,509
88902416,506
88912430,506
88922474,503
88932520,505
88942535,500
88952579,508
88962622,508
88972637,499
88982684,504
88992731,504
89002748,503
89012796,507
89022841,502
89032856,505
89042901,502
89052947,507
89062963,509
89073007,510
89083050,506
89093096,504
89103112,501
89113156,501
89123202,506
89133217,502
89143263,508
89153306,508
89163324,502
89173374,509
89183425,510
89193445,512
89203492,505
89213541,513
89223561,522
89233613,527
89243663,528
89253678,533
89263723,531
89273773,533
89283792,537
89293843,527
89303892,526
89313908,523
89323953,521
89334004,520
89344020,514
89354067,510
89364114,505
89374164,503
89384182,501
89394230,501
89404276,504
89414294,502
89424341,503
89434388,500
89444405,505
89454453,497
89464499,505
89474514,508
89484561,500
89494611,506
89504632,507
89514683,509
89524735,508
89534757,510
89544811,506
89554862,505
89564880,506
89574929,505
89584978,508
89595024,509
89605040,506
89615084,500
89625131,510
89635147,502
89645200,505
89655255,503
89665274,500
89675329,508
89685385,505
89695405,502
89705457,508
89715509,507
89725529,510
89735579,504
89745629,506
89755649,502
89765699,510
89775751,506
89785773,505
89795826,503
89805880,503
89815901,505
89825954,507
89836005,506
89846025,501
89856075,508
89866126,502
89876177,508
89886193,502
89896241,508
89906290,508
89916311,512
89926364,507
89936419,516
89946440,522
89956492,526
89966543,522
89976565,530
89986617,533
89996672,528
90006696,533
90016750,534
90026806,533
90036832,524
90046890,523
90056948,519
90066975,512
90077031,507
90087087,508
90097142,504
90107167,508
90117224,506
90127280,506
90137308,503
90147363,501
90157421,499
90167449,504
90177509,503
90187564,502
90197591,498
90207645,502
90217700,504
90227723,507
90237777,505
90247830,510
90257847,504
90267899,502
90277952,508
90287976,502
90298027,509
90308084,505
90318108,507
90328164,508
90338220,507
90348275,500
90358298,507
90368352,500
90378403,503
90388426,511
90398476,507
90408525,505
90418545,504
90428593,506
90438644,505
90448668,503
90458722,505
90468774,503
90478795,509
90488848,510
90498900,508
90508918,506
90518963,511
90529009,508
90539026,509
90549077,509
90559131,505
90569152,502
90579205,500
90589259,505
90599281,508
90609332,507
90619379,508
90629425,504
90639442,505
90649492,501
90659543,509
90669560,505
90679609,508
90689654,518
90699673,521
90709721,527
90719765,530
90729782,534
90739830,534
90749875,529
90759892,526
90769939,527
90779989,530
90790004,523
90800053,519
90810100,515
90820116,508
90830163,512
90840212,511
90850260,508
90860275,504
90870325,502
90880377,504
90890397,506
90900447,498
90910498,499
90920516,503
90930564,504
90940614,504
90950634,497
90960685,510
90970739,509
90980758,507
90990807,506
91000857,502
91010879,504
91020930,499
91030979,503
91040995,510
91051046,508
91061095,513
91071113,507
91081161,510
91091206,512
91101253,505
91111273,507
91121321,511
91131365,504
91141381,506
91151431,501
91161489,508
91171515,507
91181566,505
91191617,501
91201637,504
91211690,510
91221742,507
91231763,505
91241816,508
91251869,507
91261891,511
91271935,507
91281984,508
91292001,500
91302048,505
91312094,510
91322113,505
91332163,506
91342209,507
91352258,504
91362276,507
91372326,508
91382375,504
91392393,500
91402442,506
91412493,505
91422513,508
91432564,506
91442610,512
91452625,512
91462672,524
91472721,524
91482738,534
91492787,528
91502836,531
91512853,538
91522901,534
91532947,531
91542962,524
91553007,523
91563053,523
91573065,515
91583112,514
91593161,498
91603204,508
91613218,502
91623266,505
91633314,503
91643332,499
91653379,495
91663429,505
91673449,499
91683498,505
91693548,498
91703568,500
91713620,501
91723671,503
91733687,499
91743734,507
91753781,512
91763802,507
91773854,502
91783906,512
91793925,508
91803973,506
91814024,501
91824044,504
91834094,506
91844147,506
91854201,506
91864224,506
91874278,507
91884329,498
91894350,507
91904399,506
91914446,500
91924462,504
91934510,507
91944562,508
91954588,508
91964642,507
91974695,506
91984714,509
91994765,503
92004811,500
92014826,505
92024872,507
92034926,506
92044950,502
92055004,499
92065057,503
92075081,507
92085135,505
92095189,506
92105245,508
92115266,510
92125321,509
92135378,508
92145404,508
92155459,508
92165515,506
92175535,503
92185588,511
92195640,511
92205666,503
92215720,509
92225777,516
92235807,520
92245872,523
92255935,525
92265963,527
92276025,532
92286087,533
92296120,535
92306184,526
92316249,522
92326282,525
92336338,522
92346392,517
92356419,510
92366473,513
92376523,509
92386577,504
92396597,506
92406652,497
92416705,504
92426727,503
92436782,502
92446832,501
92456850,506
92466901,507
92476948,502
92486967,506
92497020,508
92507069,508
92517090,510
92527144,510
92537197,512
92547218,513
92557268,509
92567321,506
92577343,503
92587396,506
92597446,505
92607498,509
92617519,505
92627572,505
92637625,504
92647646,506
92657697,505
92667750,503
92677774,499
92687827,500
92697879,503
92707902,498
92717956,507
92728006,507
92738027,508
92748079,505
92758129,506
92768149,501
92778201,509
92788254,506
92798276,507
92808329,509
92818383,505
92828404,508
92838456,506
92848509,508
92858564,507
92868585,508
92878637,504
92888689,506
92898708,500
92908762,505
92918808,507
92928827,509
92938877,508
92948925,514
92958941,510
92968985,520
92979032,516
92989050,527
92999093,530
93009138,536
93019151,536
93029199,535
93039252,534
93049270,534
93059318,527
93069370,525
93079392,523
93089445,512
93099497,516
93109550,511
93119570,508
93129622,506
93139674,505
93149696,508
93159746,503
93169797,502
93179819,500
93189873,499
93199932,504
93209960,503
93220019,506
93230081,502
93240110,510
93250170,509
93260230,508
93270262,506
93280322,505
93290386,511
93300417,512
93310480,506
93320544,504
93330576,507
93340639,510
93350697,499
93360758,509
93370786,500
93380852,506
93390911,505
93400945,505
93411008,500
93421072,498
93431103,507
93441165,508
93451228,498
93461261,506
93471327,503
93481392,502
93491426,504
93501489,505
93511551,502
93521581,502
93531645,504
93541708,505
93551742,505
93561807,508
93571871,507
93581900,508
93591960,501
93602022,510
93612081,510
93622113,506
93632181,510
93642251,510
93652288,503
93662358,502
93672420,506
93682452,511
93692509,510
93702571,515
93712602,516
93722664,526
93732724,530
93742755,526
93752815,542
93762875,534
93772901,530
93782956,534
93793009,531
93803033,527
93813087,527
93823140,514
93833162,515
93843216,514
93853269,514
93863289,511
93873342,506
93883396,500
93893451,500
93903476,504
93913532,499
93923586,503
93933612,505
93943668,502
93953720,497
93963744,497
93973797,505
93983854,508
93993879,508
94003933,511
94013982,505
94024006,507
94034064,509
94044123,509
94054152,505
94064209,504
94074268,508
94084290,505
94094349,503
94104405,505
94114464,506
94124489,505
94134544,507
94144601,501
94154625,501
94164681,499
94174737,505
94184762,499
94194818,505
94204876,506
94214901,509
94224955,503
94235011,506
94245036,503
94255093,507
94265149,502
94275172,504
94285227,504
94295284,506
94305309,507
94315364,509
94325420,503
94335447,499
94345504,507
94355561,507
94365585,511
94375639,504
94385692,508
94395742,503
94405764,505
94415819,510
94425876,505
94435904,500
94445958,510
94456016,503
94466043,511
94476101,515
94486156,521
94496182,529
94506239,530
94516293,536
94526318,534
94536377,535
94546438,535
94556465,527
94566523,523
94576582,524
94586605,517
94596659,512
94606711,514
94616768,509
94626790,507
94636845,503
94646901,500
94656922,506
94666977,495
94677032,502
94687056,496
94697113,506
94707166,502
94717190,506
94727241,504
94737295,504
94747317,505
94757370,501
94767426,509
94777450,506
94787505,508
94797558,511
94807584,511
94817639,510
94827694,508
94837716,503
94847769,511
94857818,507
94867838,505
94877888,503
94887941,508
94897990,509
94908011,505
94918067,501
94928120,506
94938145,510
94948199,509
94958254,503
94968276,505
94978330,508
94988384,504
94998408,507
95008461,503
95018514,508
95028533,510
95038584,507
95048633,510
95058653,511
95068705,503
95078754,509
95088772,509
95098823,511
95108872,502
95118921,509
95128942,509
95138994,510
95149044,506
95159065,510
95169114,507
95179163,506
95189181,506
95199231,507
95209282,510
95219301,506
95229344,506
95239388,513
95249403,515
95259449,515
95269495,524
95279512,532
95289562,531
95299613,534
95309632,538
95319680,532
95329724,534
95339740,523
95349783,522
95359826,523
95369835,524
95379877,516
95389925,507
95399972,508
95409989,507
95420038,506
95430090,504
95440113,497
95450163,494
95460218,490
95470240,494
95480291,491
95490340,496
95500359,508
95510407,510
95520453,508
95530471,510
95540521,508
95550572,508
95560592,511
95570641,513
95580687,518
95590707,517
95600755,512
95610806,512
95620856,504
95630874,510
95640924,509
95650972,504
95660989,502
95671038,506
95681091,508
95691117,504
95701172,507
95711223,507
95721245,506
95731296,504
95741348,507
95751363,503
95761413,509
95771461,499
95781479,504
95791527,504
95801574,507
95811591,503
95821640,499
95831689,500
95841708,508
95851758,508
95861810,510
95871827,502
95881874,508
95891925,504
95901974,508
95911997,503
95922049,507
95932100,511
95942122,510
95952175,501
95962229,500
95972249,508
95982297,503
95992346,509
96002370,508
96012421,511
96022475,512
96032496,515
96042546,525
96052596,527
96062616,532
96072668,528
96082718,540
96092737,536
96102789,534
96112840,535
96122862,530
96132913,527
96142965,523
96153018,518
96163039,516
96173087,506
96183134,505
96193152,508
96203198,497
96213245,501
96223263,501
96233312,501
96243357,503
96253369,504
96263415,504
96273460,507
96283472,509
96293515,506
96303558,507
96313568,510
96323614,506
96333662,509
96343676,506
96353722,507
96363771,504
96373788,512
96383837,509
96393885,509
96403935,507
96413951,500
96423996,503
96434039,501
96444054,500
96454101,502
96464146,505
96474164,503
96484215,503
96494267,502
96504285,501
96514336,500
96524387,504
96534403,503
96544448,504
96554492,510
96564509,508
96574555,508
96584601,502
96594613,506
96604658,510
96614705,500
96624718,508
96634765,509
96644810,504
96654852,510
96664868,510
96674915,501
96684963,509
96694982,503
96705029,508
96715075,508
96725090,504
96735138,502
96745187,509
96755203,503
96765252,508
96775300,506
96785319,503
96795369,515
96805418,515
96815438,516
96825487,523
96835538,527
96845558,525
96855609,531
96865669,532
96875729,532
96885759,532
96895812,522
96905861,525
96915881,521
96925929,513
96935980,515
96946003,506
96956056,500
96966104,504
96976120,506
96986170,498
96996219,499
97006234,493
97016284,498
97026333,500
97036350,497
97046398,497
97056447,505
97066468,509
97076519,510
97086572,504
97096594,508
97106646,511
97116699,513
97126719,509
97136769,509
97146817,512
97156867,503
97166888,508
97176940,505
97186992,505
97197013,506
97207067,505
97217121,509
97227145,508
97237200,504
97247256,506
97257278,502
97267330,508
97277380,500
97287398,507
97297452,508
97307509,509
97317533,508
97327584,504
97337637,507
97347659,507
97357715,505
97367770,509
97377827,510
97387852,514
97397907,507
97407962,505
97417983,508
97428036,507
97438093,509
97448114,509
97458166,509
97468218,508
97478239,508
97488292,505
97498347,508
97508371,505
97518425,507
97528478,514
97538495,523
97548544,521
97558600,525
97568623,533
97578676,534
97588730,530
97598751,529
97608803,532
97618856,529
97628910,526
97638933,516
97648987,512
97659041,504
97669065,507
97679116,499
97689170,507
97699191,503
97709242,499
97719293,500
97729310,501
97739359,500
97749407,499
97759425,498
97769473,504
97779521,506
97789541,505
97799591,507
97809641,506
97819660,514
97829710,506
97839758,508
97849777,512
97859828,512
97869878,511
97879899,508
97889950,501
97900001,507
97910052,506
97920075,505
97930129,507
97940182,497
97950208,501
97960262,505
97970314,508
97980332,507
97990381,504
98000428,506
98010445,507
98020495,504
98030548,505
98040568,501
98050621,501
98060672,505
98070693,507
98080748,503
98090803,502
98100829,502
98110881,508
98120931,507
98130982,505
98141006,508
98151061,504
98161116,503
98171144,504
98181198,506
98191254,506
98201282,513
98211341,509
98221398,518
98231420,527
98241472,529
98251523,528
98261547,537
98271600,536
98281649,535
98291668,536
98301719,530
98311769,521
98321788,523
98331838,518
98341892,508
98351915,512
98361967,507
98372019,506
98382073,499
98392094,503
98402146,497
98412200,503
98422222,501
98432272,502
98442321,501
98452340,504
98462391,507
98472441,508
98482459,507
98492503,512
98502547,503
98512563,509
98522609,509
98532653,510
98542667,507
98552712,510
98562754,503
98572768,511
98582813,510
98592858,510
98602877,510
98612923,507
98622967,499
98633017,502
98643031,507
98653077,506
98663126,504
98673144,504
98683193,501
98693241,504
98703255,502
98713304,499
98723353,500
98733371,500
98743421,504
98753470,509
98763487,500
98773535,506
98783582,505
98793599,505
98803646,506
98813693,501
98823710,504
98833755,506
98843804,507
98853821,507
98863867,506
98873914,502
98883963,509
98893979,515
98904026,509
98914074,519
98924093,523
98934140,528
98944187,532
98954203,538
98964247,536
98974293,534
98984307,528
98994352,525
99004397,526
99014412,524
99024455,517
99034500,517
99044513,514
99054560,509
99064605,503
99074622,500
99084670,496
99094719,498
99104737,499
99114788,503
99124837,498
99134885,508
99144903,504
99154949,509
99164996,509
99175014,514
99185064,513
99195115,508
99205135,505
99215184,509
99225231,511
99235254,510
99245307,507
99255359,508
99265378,504
99275430,504
99285480,506
99295498,498
99305542,498
99315585,508
99325601,505
99335649,507
99345696,503
99355708,504
99365753,506
99375799,506
99385843,504
99395854,504
99405904,509
99415956,500
99425979,499
99436027,500
99446075,505
99456093,510
99466142,500
99476188,505
99486204,505
99496248,499
99506296,505
99516313,507
99526363,503
99536412,505
99546432,501
99556479,499
99566527,505
99576545,506
99586588,510
99596629,510
99606642,509
99616687,518
99626732,525
99636754,529
99646804,529
99656852,535
99666901,536
99676921,533
99686972,526
99697023,528
99707044,526
99717095,522
99727147,519
99737168,517
99747220,513
99757266,504
99767286,506
99777339,504
99787393,498
99797416,499
99807468,503
99817521,495
99827546,500
99837600,500
99847651,506
99857665,500
99867710,504
99877760,507
99887812,508
99897837,507
99907894,501
99917948,510
99927970,512
99938023,507
99948076,510
99958098,508
99968153,503
99978209,512
99988233,510
99998288,507
100008343,502
100018364,508
100028420,508
100038478,502
100048503,510
100058556,509
100068611,507
100078634,501
100088683,503
100098737,506
100108760,506
100118812,505
100128864,507
100138917,510
100148941,504
100158997,503
100169052,503
100179077,510
100189131,505
100199187,512
100209220,509
100219284,509
100229347,502
100239377,508
100249442,505
100259506,505
100269539,507
100279601,502
100289663,508
100299694,509
100309756,505
100319814,518
100329839,520
100339891,520
100349946,525
100359971,528
100370028,535
100380084,532
100390141,535
100400164,528
100410219,526
100420275,526
100430300,522
100440354,517
100450408,513
100460432,500
100470486,512
100480541,498
100490568,502
100500625,499
100510680,505
100520702,499
100530761,502
100540820,498
100550848,500
100560905,504
100570962,506
100580989,508
100591046,502
100601103,511
100611129,498
100621186,504
100631241,507
100641264,507
100651319,506
100661376,502
100671436,509
100681464,511
100691523,499
100701577,502
100711601,507
100721658,506
100731714,506
100741736,506
100751791,508
100761846,509
100771872,508
100781929,501
100791980,502
100802002,508
100812054,504
100822106,509
100832128,501
100842175,509
100852224,503
100862249,505
100872307,497
100882364,499
100892422,505
100902451,505
100912512,503
100922568,506
100932593,505
100942648,503
100952704,510
100962733,506
100972791,504
100982851,499
100992878,510
101002934,505
101012987,514
101023009,517
101033060,522
101043114,523
101053138,531
101063193,533
101073249,529
101083274,533
101093330,533
101103388,524
101113417,528
101123478,522
101133539,515
101143602,516
101153633,514
101163693,511
101173755,501
101183785,508
101193844,498
101203902,505
101213932,504
101223993,496
101234054,498
101244082,505
101254139,499
101264193,501
101274220,507
101284279,505
101294335,506
101304356,503
101314410,507
101324465,506
101334489,509
101344543,510
101354598,511
101364623,507
101374674,509
101384724,505
101394776,508
101404798,500
101414851,506
101424905,502
101434929,506
101444986,503
101455043,508
101465070,506
101475127,503
101485183,499
101495203,506
101505256,507
101515312,499
101525337,508
101535390,504
101545444,508
101555470,506
101565526,508
101575583,504
101585609,501
101595661,508
101605713,509
101615737,506
101625790,502
101635846,507
101645870,509
101655927,508
101665986,503
101676044,508
101686071,509
101696130,508
101706189,510
101716223,513
101726288,515
101736348,519
101746376,526
101756433,525
101766490,530
101776517,531
101786575,532
101796630,532
101806656,532
101816713,519
101826771,522
101836797,512
101846854,514
101856910,513
101866936,509
101876990,500
101887047,507
101897104,502
101907128,501
101917183,498
101927239,502
101937263,499
101947317,497
101957373,505
101967395,502
101977448,503
101987503,508
101997529,508
102007585,507
102017639,503
102027662,509
102037717,509
102047769,508
102057794,510
102067847,509
102077898,505
102087920,505
102097971,509
102108025,501
102118048,505
102128101,502
102138155,506
102148177,506
102158231,509
102168288,500
102178341,507
102188359,508
102198413,509
102208466,507
102218487,500
102228540,501
102238591,501
102248613,504
102258665,507
102268715,507
102278734,503
102288784,499
102298837,504
102308857,503
102318908,508
102328956,508
102338975,510
102349024,507
102359072,500
102369089,507
102379139,508
102389191,504
102399238,509
102409258,509
102419307,514
102429357,517
102439383,519
102449438,523
102459487,527
102469511,531
102479564,530
102489614,537
102499633,535
102509681,530
102519730,526
102529749,524
102539799,517
102549849,513
102559871,513
102569924,514
102579974,510
102589995,505
102600046,504
102610097,502
102620120,504
102630170,495
102640221,499
102650269,502
102660288,502
102670333,499
102680379,503
102690398,500
102700450,507
102710499,502
102720521,502
102730571,507
102740621,507
102750643,505
102760696,501
102770745,502
102780763,504
102790815,508
102800868,503
102810889,505
102820939,508
102830991,506
102841013,508
102851064,509
102861116,504
102871137,500
102881188,504
102891239,508
102901289,501
102911308,505
102921363,504
102931416,501
102941434,507
102951484,504
102961535,500
102971555,506
102981610,506
102991662,505
103001687,507
103011740,509
103021792,507
103031808,509
103041859,502
103051913,503
103061936,500
103071989,501
103082042,510
103092063,507
103102114,506
103112163,503
103122183,501
103132232,510
103142280,512
103152327,514
103162344,524
103172390,519
103182440,524
103192460,535
103202513,534
103212563,531
103222582,527
103232634,527
103242683,527
103252704,519
103262754,514
103272806,520
103282827,517
103292876,512
103302925,512
103312945,508
103322997,505
103333049,507
103343067,499
103353117,502
103363168,500
103373189,501
103383240,501
103393296,498
103403351,504
103413371,506
103423423,502
103433475,504
103443500,508
103453557,499
103463610,508
103473635,500
103483692,508
103493749,508
103503774,506
103513830,504
103523885,508
103533908,506
103543961,506
103554019,508
103564048,506
103574104,506
103584161,506
103594183,505
103604235,505
103614289,508
103624314,508
103634369,505
103644425,503
103654482,510
103664505,507
103674558,505
103684615,507
103694639,501
103704694,504
103714751,510
103724772,504
103734827,510
103744880,503
103754901,501
103764953,503
103775008,504
103785033,501
103795087,507
103805142,508
103815165,506
103825217,508
103835272,508
103845294,506
103855347,499
103865399,506
103875420,507
103885472,511
103895526,512
103905580,514
103915600,521
103925649,527
103935700,535
103945718,530
103955768,535
103965820,526
103975839,522
103985888,532
103995939,523
104005958,526
104016010,522
104026060,520
104036077,516
104046126,512
104056174,514
104066193,504
104076243,509
104086290,507
104096308,502
104106360,498
104116411,501
104126432,502
104136488,500
104146540,504
104156591,506
104166611,510
104176664,504
104186718,506
104196740,506
104206792,508
104216845,508
104226868,505
104236922,508
104246979,508
104257004,505
104267060,506
104277111,503
104287135,506
104297186,509
104307235,510
104317252,506
104327300,501
104337352,502
104347371,507
104357419,507
104367465,507
104377486,506
104387537,507
104397586,504
104407636,501
104417655,504
104427707,510
104437759,509
104447781,505
104457831,508
104467883,505
104477908,507
104487966,508
104498020,506
104508045,508
104518097,502
104528146,508
104538165,510
104548214,507
104558264,500
104568283,509
104578333,509
104588383,507
104598405,504
104608458,500
104618507,503
104628527,503
104638581,502
104648634,507
104658684,508
104668703,506
104678757,516
104688809,522
104698830,523
104708886,527
104718939,529
104728962,534
104739016,533
104749071,534
104759092,531
104769146,529
104779199,526
104789224,522
104799280,517
104809335,516
104819358,515
104829413,508
104839468,511
104849493,508
104859549,508
104869607,504
104879634,497
104889689,497
104899742,504
104909765,497
104919816,505
104929871,503
104939928,499
104949954,503
104960008,501
104970060,508
104980082,508
104990132,508
105000186,507
105010208,504
105020258,509
105030311,512
105040334,507
105050389,502
105060442,499
105070460,500
105080512,507
105090565,500
105100586,502
105110639,507
105120690,507
105130711,501
105140761,504
105150812,503
105160835,509
105170889,504
105180940,500
105190987,503
105201002,501
105211052,507
105221101,504
105231121,510
105241170,505
105251219,503
105261238,507
105271291,507
105281344,508
105291365,508
105301418,506
105311469,508
105321491,507
105331545,511
105341599,503
105351623,504
105361678,510
105371735,509
105381761,505
105391817,509
105401872,510
105411899,508
105421955,509
105432007,503
105442060,509
105452078,510
105462129,508
105472186,516
105482211,518
105492265,520
105502323,525
105512348,527
105522405,536
105532460,531
105542482,531
105552537,535
105562592,534
105572613,531
105582667,524
105592717,523
105602739,520
105612792,508
105622843,512
105632865,510
105642917,508
105652968,503
105662988,504
105673040,502
105683094,495
105693146,496
105703168,500
105713222,501
105723279,506
105733300,501
105743353,507
105753408,509
105763431,502
105773489,509
105783542,505
105793561,513
105803611,513
105813666,505
105823686,505
105833740,511
105843793,505
105853816,509
105863870,505
105873924,506
105883949,508
105894004,508
105904058,503
105914082,508
105924139,502
105934191,506
105944243,504
105954264,509
105964317,502
105974370,501
105984397,508
105994453,505
106004509,508
106014533,506
106024588,507
106034638,501
106044661,504
106054709,500
106064756,507
106074775,509
106084829,506
106094882,505
106104905,505
106114961,509
106125013,510
106135037,503
106145092,506
106155152,507
106165206,503
106175231,507
106185287,506
106195345,507
106205370,514
106215426,510
106225478,514
106235498,525
106245546,525
106255601,530
106265623,535
106275678,536
106285733,532
106295759,534
106305814,528
106315866,530
106325886,527
106335938,524
106345991,519
106356014,521
106366069,512
106376121,512
106386142,507
106396195,509
106406248,504
106416301,501
106426324,500
106436376,504
106446432,503
106456456,504
106466512,506
106476567,503
106486592,504
106496644,504
106506695,507
106516717,508
106526769,510
106536820,512
106546838,509
106556890,509
106566940,507
106576961,503
106587012,502
106597065,509
106607084,509
106617134,506
106627183,505
106637205,505
106647259,509
106657316,508
106667370,508
106677391,505
106687443,503
106697494,508
106707517,506
106717569,504
106727618,508
106737638,509
106747691,510
106757742,508
106767764,508
106777817,508
106787873,500
106797895,507
106807947,509
106818000,505
106828021,507
106838074,509
106848127,507
106858148,504
106868200,500
106878252,508
106888273,508
106898327,504
106908380,506
106918400,506
106928452,501
106938504,505
106948557,504
106958580,510
106968630,508
106978682,508
106988705,517
106998756,521
107008807,525
107018827,523
107028875,528
107038927,538
107048947,538
107058998,539
107069048,538
107079069,531
107089121,527
107099175,525
107109198,519
107119251,512
107129301,513
107139317,505
107149362,512
107159409,509
107169458,505
107179482,503
107189531,500
107199581,503
107209600,504
107219650,497
107229700,501
107239719,504
107249768,500
107259814,498
107269831,506
107279879,505
107289927,510
107299945,504
107309992,510
107320040,512
107330055,510
107340101,508
107350148,512
107360166,511
107370213,506
107380259,510
107390276,502
107400322,501
107410365,508
107420411,503
107430427,508
107440476,502
107450523,498
107460537,504
107470581,506
107480629,505
107490644,503
107500688,505
107510732,506
107520749,506
107530796,501
107540845,507
107550861,505
107560907,499
107570953,498
107580966,505
107591012,506
107601053,505
107611067,509
107621114,508
107631162,509
107641180,508
107651227,505
107661273,508
107671321,504
107681340,508
107691387,505
107701431,511
107711446,507
107721495,502
107731544,503
107741565,510
107751614,503
107761659,510
107771675,508
107781725,520
107791776,521
107801794,523
107811842,533
107821891,527
107831911,532
107841960,534
107852009,527
107862025,519
107872072,526
107882120,517
107892134,513
107902180,510
107912229,510
107922278,510
107932298,503
107942346,505
107952392,498
107962407,496
107972453,500
107982499,499
107992515,498
108002563,502
108012611,500
108022628,502
108032679,499
108042729,504
108052750,500
108062799,504
108072850,499
108082867,510
108092913,509
108102962,505
108112982,507
108123032,506
108133086,506
108143108,507
108153160,505
108163212,504
108173262,504
108183280,503
108193327,502
108203373,501
108213393,506
108223440,502
108233496,506
108243522,509
108253578,501
108263633,507
108273650,499
108283699,498
108293750,506
108303769,503
108313820,505
108323872,508
108333895,508
108343946,505
108353994,506
108364012,507
108374060,505
108384109,509
108394124,502
108404173,506
108414224,503
108424276,507
108434296,508
108444347,501
108454397,498
108464415,508
108474467,503
108484517,507
108494534,506
108504584,509
108514641,504
108524667,510
108534721,506
108544778,503
108554802,511
108564858,514
108574914,517
108584936,523
108594984,530
108605031,532
108615049,533
108625097,526
108635143,533
108645158,530
108655202,528
108665247,521
108675294,523
108685312,520
108695360,514
108705404,511
108715416,510
108725461,507
108735504,504
108745518,504
108755563,504
108765608,504
108775625,500
108785673,504
108795721,505
108805737,501
108815785,499
108825832,499
108835850,504
108845899,510
108855947,506
108865966,502
108876014,509
108886059,510
108896075,508
108906123,509
108916169,508
108926212,508
108936227,508
108946270,505
108956316,505
108966331,504
108976378,508
108986425,499
108996440,507
109006489,502
109016541,506
109026560,501
109036612,509
109046661,504
109056679,506
109066725,498
109076774,502
109086788,508
109096836,500
109106881,508
109116898,500
109126949,507
109137003,504
109147030,503
109157087,505
109167140,508
109177188,502
109187208,507
109197254,508
109207300,500
109217312,507
109227356,503
109237402,508
109247417,504
109257464,509
109267510,502
109277526,507
109287570,500
109297614,505
109307633,506
109317680,502
109327726,507
109337741,504
109347785,513
109357826,519
109367839,521
109377885,530
109387932,531
109397948,527
109407995,537
109418044,531
109428090,529
109438107,529
109448158,524
109458208,517
109468225,518
109478272,516
109488320,513
109498342,507
109508393,512
109518440,510
109528457,504
109538506,504
109548559,498
109558582,500
109568634,495
109578683,496
109588702,501
109598751,496
109608803,499
109618820,501
109628870,500
109638925,503
109648941,506
109658988,504
109669038,509
109679085,509
109689103,506
109699148,504
109709194,514
109719207,513
109729253,508
109739306,504
109749330,510
109759374,508
109769419,506
109779435,499
109789483,500
109799533,510
109809548,508
109819594,507
109829644,500
109839664,503
109849719,508
109859774,502
109869799,505
109879853,502
109889907,508
109899931,502
109909986,505
109920039,505
109930093,502
109940118,510
109950176,509
109960231,507
109970251,509
109980306,499
109990355,506
110000377,505
110010429,507
110020485,501
110030512,509
110040567,505
110050617,502
110060634,507
110070684,506
110080732,517
110090751,517
110100799,520
110110847,523
110120865,533
110130916,535
110140966,535
110150986,534
110161036,536
110171084,533
110181104,526
110191155,523
110201208,519
110211261,511
110221282,510
110231333,512
110241383,504
110251401,503
110261447,505
110271496,501
110281515,501
110291566,497
110301616,495
110311636,504
110321688,502
110331742,499
110341765,506
110351820,505
110361872,504
110371891,511
110381939,510
110391988,509
110402006,504
110412056,510
110422105,511
110432154,507
110442174,510
110452226,504
110462276,501
110472296,509
110482343,504
110492391,505
110502413,502
110512463,506
110522514,499
110532536,506
110542586,508
110552638,500
110562660,506
110572710,503
110582763,502
110592783,503
110602832,500
110612882,507
110622901,502
110632953,504
110643005,509
110653027,505
110663080,507
110673130,507
110683181,501
110693199,508
110703253,506
110713309,510
110723336,504
110733396,509
110743456,508
110753481,507
110763531,496
110773581,507
110783602,509
110793651,510
110803699,514
110813710,521
110823755,524
110833801,526
110843819,528
110853871,538
110863921,535
110873940,538
110883988,531
110894039,530
110904058,529
110914108,527
110924158,522
110934208,515
110944223,512
110954271,507
110964318,505
110974336,510
110984386,504
110994437,504
111004457,502
111014505,505
111024553,497
111034571,497
111044616,502
111054660,505
111064675,497
111074721,504
111084767,501
111094784,507
111104831,510
111114878,512
111124898,505
111134948,511
111144997,506
111155016,503
111165067,512
111175118,509
111185138,507
111195189,508
111205237,505
111215288,501
111225304,507
111235350,503
111245394,507
111255408,504
111265457,507
111275505,507
111285522,498
111295570,502
111305620,504
111315638,507
111325686,508
111335730,506
111345745,503
111355790,507
111365836,501
111375852,509
111385899,507
111395945,506
111405962,506
111416009,510
111426052,505
111436101,501
111446120,508
111456171,503
111466221,507
111476243,504
111486295,506
111496350,503
111506370,507
111516422,511
111526471,510
111536485,511
111546535,517
111556586,512
111566605,523
111576654,527
111586701,530
111596719,535
111606768,535
111616812,533
111626829,530
111636876,529
111646926,525
111656945,521
111666993,520
111677043,511
111687093,514
111697109,503
111707157,513
111717206,507
111727225,507
111737276,501
111747323,501
111757336,499
111767378,504
111777422,495
111787437,498
111797483,504
111807530,500
111817548,508
111827595,509
111837639,508
111847652,510
111857693,507
111867734,510
111877748,511
111887798,507
111897843,513
111907860,514
111917907,510
111927953,504
111937994,509
111948006,506
111958048,509
111968092,500
111978107,507
111988150,504
111998193,503
112008207,506
112018249,505
112028288,506
112038300,506
112048341,503
112058383,502
112068398,510
112078440,508
112088477,507
112098486,508
112108528,505
112118569,508
112128577,508
112138618,505
112148659,504
112158672,502
112168716,507
112178759,505
112188801,508
112198816,508
112208864,506
112218908,508
112228923,498
112238968,502
112249015,507
112259032,501
112269081,504
112279126,511
112289141,505
112299185,512
112309231,519
112319246,519
112329290,524
112339336,533
112349353,531
112359401,537
112369448,534
112379465,533
112389513,528
112399561,522
112409577,519
112419627,519
112429677,516
112439696,509
112449746,508
112459794,503
112469839,503
112479850,502
112489895,498
112499937,504
112509949,501
112519995,500
112530039,506
112540053,498
112550100,502
112560146,508
112570160,508
112580198,502
112590244,511
112600256,509
112610299,511
112620342,507
112630353,511
112640398,512
112650444,504
112660460,510
112670505,508
112680552,504
112690599,507
112700617,508
112710665,501
112720715,498
112730735,505
112740784,499
112750832,501
112760852,500
112770902,506
112780953,503
112790973,500
112801021,506
112811067,505
112821081,499
112831127,497
112841174,505
112851190,506
112861240,509
112871291,506
112881311,508
112891362,507
112901412,500
112911433,507
112921485,505
112931533,507
112941583,510
112951607,507
112961662,500
112971716,501
112981740,504
112991793,506
113001843,507
113011861,502
113021913,511
113031959,510
113041978,519
113052030,521
113062080,527
113072098,527
113082148,527
113092198,536
113102216,532
113112263,530
113122310,531
113132327,528
113142374,521
113152424,519
113162441,508
113172487,513
113182532,505
113192548,508
113202600,506
113212655,503
113222711,497
113232735,500
113242788,501
113252838,502
113262858,503
113272905,496
113282952,501
113292969,502
113303016,508
113313060,508
113323073,499
113333117,511
113343163,506
113353181,505
113363226,511
113373273,506
113383289,507
113393335,507
113403385,505
113413406,506
113423462,506
113433514,502
113443569,508
113453592,505
113463645,507
113473695,503
113483714,501
113493765,508
113503816,497
113513831,499
113523882,499
113533932,500
113543950,505
113553997,501
113564044,510
113574059,507
113584105,501
113594152,507
113604168,508
113614215,506
113624260,509
113634277,507
113644325,504
113654373,510
113664390,504
113674437,508
113684490,507
113694545,506
113704567,509
113714616,508
113724669,507
113734694,512
113744751,510
113754801,519
113764823,526
113774875,524
113784923,535
113794940,535
113804985,534
113815031,534
113825045,527
113835090,529
113845140,522
113855159,518
113865208,515
113875258,501
113885276,502
113895324,502
113905374,501
113915394,504
113925443,499
113935493,498
113945541,500
113955554,497
113965603,504
113975647,502
113985658,504
113995703,503
114005745,511
114015755,507
114025797,512
114035840,510
114045853,510
114055900,510
114065946,509
114075962,512
114086010,507
114096058,506
114106071,500
114116118,505
114126166,506
114136183,507
114146232,501
114156282,504
114166300,506
114176345,499
114186391,503
114196404,502
114206449,504
114216495,503
114226539,507
114236556,511
114246602,510
114256650,508
114266665,503
114276712,507
114286760,510
114296781,504
114306833,509
114316887,511
114326909,509
114336956,509
114346999,503
114357018,508
114367065,499
114377108,508
114387123,508
114397170,504
114407217,501
114417231,509
114427280,512
114437327,515
114447373,513
114457388,527
114467433,522
114477480,531
114487493,535
114497538,530
114507588,531
114517604,528
114527649,526
114537695,527
114547709,518
114557753,517
114567797,516
114577810,512
114587857,511
114597903,510
114607914,504
114617959,508
114628003,505
114638017,494
114648063,503
114658111,500
114668130,501
114678180,504
114688228,500
114698244,508
114708289,508
114718333,507
114728377,512
114738392,511
114748440,510
114758484,510
114768496,512
114778542,513
114788591,511
114798612,513
114808664,510
114818709,502
114828726,504
114838775,507
114848822,501
114858836,503
114868881,506
114878924,506
114888937,502
114898979,507
114909026,505
114919039,504
114929083,501
114939126,503
114949172,499
114959187,507
114969235,507
114979281,502
114989297,504
114999340,501
115009387,500
115019404,509
115029451,508
115039495,507
115049509,507
115059555,506
115069601,504
115079619,508
115089669,504
115099718,502
115109730,499
115119773,508
115129819,501
115139835,500
115149881,510
115159928,512
115169933,514
115179992,516
115190040,526
115200045,531
115210107,534
115220155,530
115230202,532
115240221,534
115250268,528
115260313,525
115270331,516
115280377,515
115290424,514
115300443,510
115310495,512
115320542,504
115330561,502
115340611,504
115350662,500
115360679,498
115370727,503
115380774,503
115390781,500
115400841,497
115410889,503
115420891,503
115430950,505
115440996,507
115451042,508
115461059,505
115471107,511
115481152,507
115491170,510
115501219,508
115511265,511
115521283,511
115531330,500
115541379,508
115551400,502
115561447,506
115571494,500
115581512,503
115591556,499
115601604,504
115611614,504
115621677,505
115631726,499
115641729,497
115651785,499
115661830,498
115671837,507
115681898,507
115691945,499
115701953,509
115712013,508
115722060,506
115732111,509
115742126,508
115752172,503
115762218,503
115772234,508
115782275,503
115792322,506
115802340,507
115812387,510
115822437,504
115832442,509
115842503,506
115852552,505
115862557,511
115872618,514
115882668,520
115892671,524
115902732,522
115912780,527
115922788,530
115932849,535
115942901,531
115952913,528
115962974,528
115973023,519
115983069,517
115993084,515
116003128,515
116013172,507
116023186,506
116033232,505
116043280,498
116053297,500
116063346,502
116073393,496
116083396,503
116093456,499
116103496,502
116113498,506
116123551,506
116133597,506
116143602,511
116153660,512
116163707,509
116173715,512
116183769,504
116193816,511
116203861,502
116213876,509
116223918,506
116233964,508
116243982,505
116254026,506
116264071,499
116274082,508
116284127,506
116294173,506
116304175,503
116314232,503
116324277,504
116334280,500
116344338,504
116354383,506
116364387,504
116374443,505
116384488,506
116394493,504
116404549,503
116414594,503
116424601,502
116434653,502
116444697,510
116454709,501
116464767,512
116474812,511
116484858,510
116494869,507
116504916,506
116514966,508
116524972,506
116535032,511
116545080,506
116555083,514
116565140,521
116575186,521
116585190,531
116595247,527
116605296,535
116615302,533
116625354,532
116635401,527
116645411,526
116655465,519
116665512,519
116675523,516
116685575,516
116695620,509
116705623,504
116715668,508
116725709,504
116735747,498
116745744,495
116755793,503
116765831,500
116775832,501
116785891,504
116795934,502
116805938,504
116815996,508
116826041,506
116836045,502
116846100,505
116856145,512
116866154,507
116876207,509
116886252,505
116896260,502
116906307,510
116916343,501
116926347,507
116936394,505
116946438,500
116956483,505
116966485,506
116976542,508
116986587,506
116996590,497
117006649,507
117016698,504
117026703,508
117036762,500
117046807,509
117056814,506
117066872,507
117076918,511
117086922,505
117096972,503
117107018,507
117117027,511
117127081,510
117137129,508
117147138,511
117157187,509
117167230,509
117177228,500
117187277,504
117197333,506
117207378,507
117217378,509
117227436,518
117237480,513
117247484,521
117257542,527
117267584,527
117277586,532
117287641,535
117297684,534
117307690,531
117317741,530
117327787,521
117337794,522
117347847,522
117357888,514
117367895,513
117377947,514
117387994,510
117398008,507
117408047,504
117418105,500
117428113,502
117438158,496
117448217,505
117458259,503
117468260,504
117478321,497
117488368,507
117498372,505
117508427,503
117518477,502
117528485,501
117538539,507
117548585,503
117558595,509
117568648,507
117578701,507
117588712,508
117598766,507
117608814,504
117618825,505
117628874,505
117638919,503
117648920,505
117658960,506
117669018,506
117679017,500
117689072,499
117699131,505
117709179,508
117719183,500
117729236,504
117739278,500
117749280,503
117759330,508
117769372,509
117779378,506
117789431,507
117799481,510
117809496,508
117819553,510
117829608,505
117839623,507
117849674,508
117859724,501
117869733,504
117879774,504
117889837,505
117899839,508
117909894,511
117919958,512
117929960,512
117940015,516
117950077,520
117960084,527
117970143,530
117980206,532
117990257,527
118000273,530
118010334,527
118020386,523
118030398,519
118040457,522
118050511,510
118060524,513
118070579,505
118080634,509
118090639,506
118100694,513
118110758,505
118120762,505
118130819,502
118140881,504
118150884,495
118160941,499
118171002,502
118181008,506
118191066,503
118201126,500
118211173,508
118221186,509
118231246,509
118241297,511
118251312,510
118261371,510
118271423,511
118281441,512
118291498,508
118301548,503
118311549,504
118321603,502
118331664,510
118341670,507
118351732,500
118361801,500
118371812,506
118381875,504
118391943,497
118401952,502
118412009,501
118422073,504
118432082,506
118442137,502
118452195,500
118462243,509
118472259,508
118482317,501
118492368,505
118502381,508
118512433,507
118522482,504
118532485,501
118542537,506
118552596,507
118562596,508
118572650,505
118582711,510
118592711,502
118602767,505
118612830,505
118622832,507
118632889,507
118642953,505
118652960,510
118663015,519
118673073,524
118683080,522
118693137,523
118703194,523
118713245,532
118723262,527
118733326,528
118743382,520
118753384,524
118763436,515
118773498,521
118783500,512
118793557,506
118803621,511
118813620,507
118823670,507
118833726,506
118843727,498
118853780,497
118863842,504
118873846,501
118883902,499
118893959,504
118903964,497
118914020,504
118924072,500
118934076,503
118944129,506
118954185,506
118964235,505
118974250,509
118984294,512
118994359,510
119004371,511
119014420,509
119024489,506
119034496,504
119044556,507
119054622,506
119064629,502
119074688,500
119084749,508
119094755,505
119104811,505
119114867,507
119124873,498
119134928,500
119144985,504
119154994,508
119165049,503
119175103,504
119185110,505
119195161,507
119205213,507
119215265,508
119225273,503
119235314,502
119245372,510
119255370,510
119265420,511
119275480,506
119285483,506
119295532,509
119305584,506
119315581,504
119325633,511
119335688,510
119345692,508
119355745,519
119365800,518
119375806,526
119385859,523
119395912,530
119405921,533
119415971,529
119426023,530
119436036,529
119446081,525
119456125,525
119466186,519
119476184,518
119486237,516
119496300,508
119506305,508
119516360,509
119526421,503
119536427,506
119546484,499
119556548,500
119566560,500
119576620,502
119586678,500
119596688,505
119606745,497
119616803,506
119626813,509
119636868,509
119646924,508
119656937,508
119666988,504
119677037,506
119687066,507
119697109,504
119707165,509
119717189,511
119727225,508
119737277,510
119747337,508
119757341,503
119767395,505
119777452,505
119787457,504
119797511,504
119807564,500
119817568,508
119827617,506
119837671,503
119847681,505
119857740,505
119867793,501
119877802,507
119887841,504
119897890,508
119907911,501
119917944,503
119927994,503
119938016,508
119948053,508
119958103,500
119968159,501
119978161,508
119988210,504
119998263,503
120008264,510
120018315,505
120028369,508
120038372,511
120048424,505
120058476,518
120068481,521
120078531,527
120088580,527
120098582,532
120108618,531
120118664,535
120128681,533
120138714,535
120148766,526
120158788,521
120168823,524
120178875,521
120188892,519
120198924,517
120208974,513
120219025,506
120229026,503
120239081,508
120249132,507
120259137,506
120269199,503
120279257,502
120289265,503
120299317,501
120309367,504
120319374,505
120329411,502
120339460,505
120349482,507
120359520,509
120369574,508
120379598,510
120389629,511
120399680,503
120409703,508
120419735,505
120429784,508
120439803,503
120449833,500
120459884,503
120469936,499
120479939,499
120489993,508
120500042,500
120510046,508
120520099,509
120530152,497
120540160,504
120550196,503
120560243,507
120570263,499
120580307,499
120590347,507
120600367,507
120610402,503
120620453,510
120630476,508
120640509,506
120650556,502
120660577,501
120670609,499
120680659,509
120690678,508
120700714,505
120710766,509
120720819,506
120730824,504
120740877,505
120750929,506
120760937,510
120770986,509
120781027,511
120791054,511
120801104,513
120811150,521
120821176,527
120831215,530
120841266,532
120851291,536
120861329,536
120871385,525
120881411,531
120891452,527
120901511,524
120911541,523
120921583,518
120931642,517
120941671,518
120951709,513
120961762,510
120971782,506
120981821,509
120991872,501
121001925,501
121011933,505
121021982,502
121032026,500
121042048,503
121052087,502
121062142,500
121072165,499
121082199,504
121092249,507
121102272,500
121112309,504
121122364,501
121132388,503
121142424,510
121152478,510
121162504,503
121172541,505
121182591,503
121192613,508
121202650,507
121212699,507
121222748,506
121232758,506
121242805,507
121252845,502
121262864,502
121272902,507
121282957,506
121292980,505
121303013,505
121313066,499
121323090,508
121333129,504
121343183,505
121353206,504
121363244,508
121373301,500
121383326,509
121393367,504
121403422,507
121413445,507
121423493,508
121433546,509
121443572,500
121453611,507
121463649,507
121473684,507
121483722,508
121493759,503
121503810,510
121513833,503
121523865,501
121533913,501
121543936,509
121553972,509
121564026,514
121574051,517
121584086,520
121594139,527
121604162,523
121614197,524
121624252,529
121634277,533
121644319,532
121654376,532
121664401,532
121674443,530
121684484,526
121694517,522
121704553,517
121714590,515
121724643,510
121734667,510
121744707,503
121754761,508
121764788,503
121774825,501
121784878,505
121794902,502
121804939,500
121814995,504
121825019,501
121835054,502
121845110,504
121855133,506
121865172,503
121875226,507
121885252,508
121895290,508
121905330,507
121915365,503
121925405,506
121935439,512
121945474,506
121955510,503
121965547,504
121975585,508
121985623,507
121995659,499
122005713,507
122015735,505
122025770,507
122035819,498
122045841,503
122055880,508
122065934,506
122075958,506
122085994,505
122096044,505
122106063,504
122116095,507
122126132,508
122136161,504
122146198,506
122156234,502
122166269,508
122176304,502
122186340,502
122196376,508
122206410,506
122216443,502
122226496,503
122236519,507
122246547,504
122256594,507
122266615,507
122276651,504
122286705,508
122296728,501
122306765,505
122316817,506
122326841,507
122336879,503
122346932,507
122356957,502
122366995,508
122377045,517
122387074,522
122397111,526
122407145,532
122417183,534
122427222,534
122437256,532
122447292,536
122457327,538
122467362,530
122477410,530
122487432,528
122497466,517
122507518,518
122517541,513
122527579,513
122537634,504
122547659,504
122557699,505
122567752,499
122577777,504
122587813,496
122597856,497
122607876,496
122617904,505
122627936,499
122637964,507
122647997,502
122658032,505
122668067,507
122678102,508
122688136,509
122698173,511
122708216,504
122718256,509
122728300,502
122738341,507
122748371,504
122758420,509
122768438,503
122778472,504
122788518,509
122798537,504
122808569,499
122818613,500
122828641,502
122838679,498
122848715,504
122858751,505
122868790,508
122878825,506
122888860,506
122898900,507
122908938,505
122918974,506
122929010,506
122939042,508
122949077,507
122959115,508
122969147,505
122979197,508
122989218,506
122999253,510
123009304,501
123019328,502
123029366,507
123039405,504
123049436,508
123059471,505
123069502,504
123079537,500
123089572,504
123099606,504
123109641,502
123119676,497
123129710,504
123139745,502
123149781,499
123159813,499
123169850,509
123179889,512
123189926,514
123199962,514
123209998,526
123220037,531
123230089,536
123240112,535
123250145,535
123260183,542
123270213,535
123280247,531
123290280,528
123300316,527
123310351,522
123320385,521
123330419,513
123340455,515
123350484,513
123360518,513
123370554,508
123380594,507
123390637,505
123400677,496
123410717,504
123420754,503
123430787,500
123440818,499
123450851,503
123460887,506
123470923,508
123480954,504
123490987,503
123501023,503
123511055,510
123521089,507
123531126,504
123541157,502
123551185,509
123561217,509
123571247,505
123581280,502
123591316,506
123601351,503
123611387,505
123621424,505
123631459,504
123641495,502
123651530,503
123661563,506
123671601,503
123681638,497
123691677,498
123701715,503
123711754,510
123721794,510
123731834,503
123741872,509
123751912,500
123761949,503
123771987,508
123782028,505
123792065,510
123802105,509
123812139,511
123822172,505
123832209,501
123842245,502
123852278,506
123862313,508
123872351,510
123882385,508
123892418,508
123902451,505
123912485,501
123922518,507
123932554,509
123942588,503
123952622,499
123962659,505
123972697,503
123982732,509
123992769,511
124002803,510
124012837,519
124022876,523
124032915,530
124042951,536
124052991,536
124063030,536
124073069,536
124083113,533
124093152,535
124103194,525
124113234,526
124123272,523
124133306,512
124143338,513
124153374,513
124163414,510
124173452,509
124183486,506
124193526,504
124203562,500
124213602,505
124223642,502
124233678,497
124243719,494
124253754,496
124263789,502
124273827,503
124283865,504
124293903,505
124303939,500
124313976,506
124324014,507
124334055,505
124344095,509
124354130,503
124364164,513
124374196,503
124384231,506
124394268,507
124404303,501
124414338,507
124424371,503
124434407,505
124444445,500
124454481,508
124464517,508
124474557,505
124484592,508
124494629,501
124504668,507
124514702,500
124524740,505
124534776,501
124544810,505
124554845,502
124564880,508
124574915,504
124584946,506
124594980,498
124605015,507
124615049,504
124625082,505
124635119,498
124645153,505
124655190,505
124665225,507
124675258,503
124685295,501
124695334,507
124705371,506
124715407,507
124725444,509
124735477,504
124745513,504
124755550,505
124765588,506
124775626,509
124785665,500
124795704,510
124805740,507
124815776,511
124825813,516
124835854,525
124845898,526
124855944,532
124865986,536
124876025,537
124886064,539
124896100,531
124906134,539
124916168,534
124926202,529
124936238,524
124946277,519
124956311,509
124966347,507
124976383,508
124986419,505
124996456,504
125006494,504
125016530,503
125026565,497
125036607,502
125046647,497
125056682,495
125066717,502
125076747,500
125086782,502
125096820,504
125106861,502
125116897,503
125126933,505
125136970,511
125147008,504
125157044,509
125167075,508
125177109,509
125187145,508
125197182,510
125207212,507
125217247,510
125227281,504
125237313,499
125247346,504
125257382,502
125267414,507
125277446,505
125287483,504
125297520,506
125307554,507
125317588,503
125327621,503
125337651,505
125347684,502
125357719,499
125367754,507
125377792,505
125387829,505
125397864,508
125407902,505
125417940,507
125427975,507
125438016,501
125448061,507
125458102,506
125468146,500
125478188,503
125488219,500
125498261,498
125508301,499
125518341,502
125528380,504
125538423,505
125548465,507
125558505,505
125568548,506
125578589,503
125588627,506
125598670,508
125608710,506
125618747,512
125628785,509
125638826,518
125648864,523
125658908,522
125668951,529
125678988,527
125689033,530
125699074,533
125709105,529
125719149,532
125729189,524
125739231,523
125749271,518
125759313,512
125769355,513
125779396,512
125789436,504
125799477,500
125809515,503
125819553,501
125829589,503
125839626,503
125849666,502
125859709,495
125869748,502
125879790,500
125889830,504
125899864,506
125909900,508
125919934,506
125929968,509
125940010,510
125950046,508
125960075,510
125970118,511
125980154,503
125990181,501
126000225,502
126010258,508
126020292,507
126030331,506
126040369,507
126050405,507
126060439,503
126070477,501
126080513,504
126090547,505
126100585,500
126110620,504
126120650,504
126130689,504
126140726,504
126150757,508
126160794,510
126170827,500
126180857,508
126190897,504
126200932,501
126210961,507
126221005,508
126231043,506
126241080,509
126251114,505
126261151,510
126271190,506
126281226,501
126291263,508
126301300,500
126311333,499
126321369,503
126331404,506
126341439,507
126351485,508
126361525,508
126371559,507
126381603,501
126391645,503
126401678,510
126411721,512
126421761,513
126431792,525
126441833,529
126451876,529
126461910,538
126471962,528
126482004,528
126492047,533
126502086,530
126512128,529
126522166,530
126532205,523
126542246,520
126552289,513
126562328,513
126572370,511
126582409,507
126592445,507
126602485,500
126612522,498
126622554,504
126632596,500
126642633,503
126652664,503
126662711,505
126672749,504
126682777,508
126692822,512
126702860,507
126712888,510
126722937,511
126732976,512
126743004,505
126753053,508
126763093,510
126773133,511
126783170,509
126793209,501
126803249,508
126813279,508
126823320,507
126833359,507
126843391,500
126853437,505
126863476,504
126873503,500
126883545,506
126893581,507
126903612,500
126913660,502
126923699,501
126933727,508
126943776,506
126953815,507
126963843,509
126973884,503
126983919,504
126993945,504
127003989,510
127014021,509
127024055,507
127034085,506
127044124,506
127054163,509
127064197,503
127074242,503
127084285,503
127094321,508
127104372,508
127114417,506
127124451,508
127134498,510
127144535,516
127154562,516
127164611,516
127174650,523
127184680,520
127194728,534
127204768,536
127214797,539
127224847,541
127234889,532
127244917,536
127254964,527
127265005,530
127275045,521
127285078,518
127295123,516
127305157,508
127315185,509
127325226,504
127335266,503
127345298,501
127355346,501
127365386,500
127375421,494
127385467,495
127395506,496
127405538,500
127415587,501
127425626,503
127435654,498
127445704,509
127455743,508
127465766,506
127475809,509
127485847,506
127495878,508
127505905,511
127515943,503
127525977,509
127536004,502
127546048,506
127556086,506
127566112,503
127576151,506
127586183,507
127596206,505
127606247,503
127616279,506
127626305,504
127636353,505
127646391,503
127656414,506
127666457,508
127676491,501
127686511,507
127696554,499
127706592,504
127716616,502
127726661,508
127736702,502
127746719,508
127756759,508
127766797,511
127776833,510
127786861,507
127796902,510
127806938,505
127816963,507
127827004,507
127837038,506
127847063,503
127857106,507
127867142,505
127877165,506
127887212,506
127897250,515
127907274,517
127917320,522
127927356,528
127937375,523
127947418,526
127957455,526
127967471,533
127977513,523
127987553,526
127997587,522
128007613,520
128017652,516
128027688,509
128037714,512
128047752,501
128057786,507
128067811,505
128077856,506
128087890,504
128097914,502
128107958,503
128117996,501
128128023,502
128138072,506
128148115,506
128158140,506
128168185,505
128178226,511
128188247,508
128198294,509
128208334,507
128218352,515
128228396,513
128238439,508
128248458,510
128258505,511
128268545,507
128278580,508
128288604,507
128298649,508
128308684,508
128318708,508
