timestamp, ppg
10512108,507
10522548,508
10532587,509
10542641,503
10552655,503
10562691,506
10572743,505
10582756,505
10592796,499
10602846,505
10612857,510
10622894,511
10632944,504
10642957,512
10652994,518
10663040,522
10673054,523
10683099,529
10693135,532
10703191,534
10713203,535
10723237,534
10733290,534
10743306,529
10753344,528
10763400,521
10773414,522
10783452,518
10793507,514
10803520,514
10813558,510
10823606,504
10833618,501
10843658,504
10853707,506
10863723,503
10873767,495
10883815,502
10893831,501
10903876,497
10913914,498
10923974,505
10933990,501
10944026,505
10954081,501
10964096,501
10974135,507
10984189,504
10994207,506
11004249,507
11014306,506
11024325,509
11034371,499
11044427,508
11054443,501
11064486,501
11074537,499
11084551,501
11094594,499
11104643,505
11114658,504
11124704,504
11134743,504
11144770,503
11154816,497
11164860,498
11174924,501
11184948,507
11194994,503
11205051,501
11215068,496
11225106,507
11235159,505
11245174,500
11255215,502
11265267,499
11275284,505
11285328,507
11295380,505
11305398,502
11315440,507
11325487,499
11335501,504
11345547,499
11355591,507
11365604,500
11375648,504
11385685,501
11395694,503
11405754,500
11415787,502
11425843,504
11435860,510
11445900,511
11455955,515
11465970,513
11476009,524
11486063,525
11496077,529
11506115,523
11516166,528
11526183,525
11536224,525
11546275,523
11556292,512
11566338,519
11576389,514
11586407,508
11596453,512
11606488,508
11616492,507
11626555,501
11636591,504
11646598,502
11656660,502
11666695,502
11676752,498
11686772,500
11696813,503
11706872,497
11716890,495
11726936,502
11736993,506
11747014,503
11757062,497
11767120,503
11777143,503
11787193,510
11797247,502
11807266,507
11817315,502
11827353,502
11837381,501
11847428,501
11857469,499
11867481,503
11877550,503
11887594,506
11897603,504
11907670,500
11917711,503
11927719,504
11937784,504
11947825,501
11957877,498
11967892,500
11977932,507
11987981,504
11997998,501
12008044,501
12018096,502
12028109,496
12038154,498
12048193,502
12058224,506
12068273,502
12078313,504
12088327,507
12098394,510
12108433,508
12118445,503
12128514,505
12138556,503
12148567,503
12158636,506
12168682,498
12178692,506
12188759,503
12198808,507
12208868,505
12218892,513
12228943,513
12239002,513
12249026,516
12259078,525
12269134,519
12279157,522
12289208,529
12299250,520
12309265,523
12319333,520
12329376,517
12339389,519
12349454,513
12359492,507
12369502,510
12379567,511
12389612,511
12399619,504
12409681,509
12419719,503
12429771,501
12439786,506
12449829,501
12459883,504
12469902,499
12479947,505
12489995,496
12500010,502
12510054,504
12520092,504
12530120,506
12540169,509
12550207,505
12560218,508
12570285,503
12580324,510
12590336,502
12600404,508
12610446,512
12620452,505
12630515,508
12640558,505
12650565,506
12660632,508
12670678,497
12680682,506
12690746,506
12700793,506
12710847,505
12720867,506
12730915,498
12740951,504
12750984,505
12761033,503
12771067,503
12781076,505
12791139,500
12801180,505
12811193,504
12821259,504
12831302,506
12841313,506
12851380,503
12861422,499
12871430,504
12881499,504
12891544,499
12901551,506
12911620,508
12921667,506
12931721,508
12941739,503
12951787,514
12961828,509
12971860,522
12981909,519
12991949,519
13001959,523
13012022,529
13022061,527
13032071,528
13042139,529
13052181,526
13062190,515
13072260,522
13082301,520
13092309,516
13102376,511
13112418,510
13122424,510
13132490,505
13142533,505
13152536,507
13162599,506
13172644,498
13182694,495
13192712,504
13202758,504
13212796,497
13222807,504
13232869,505
13242900,499
13252903,507
13262966,501
13273003,508
13283010,510
13293071,505
13303108,502
13313115,510
13323176,506
13333218,501
13343224,508
13353291,501
13363340,504
13373343,507
13383406,504
13393448,501
13403448,509
13413512,503
13423561,503
13433601,501
13443613,506
13453679,503
13463718,504
13473731,505
13483798,499
13493838,503
13503848,503
13513915,503
13523956,503
13533964,501
13544030,500
13554068,505
13564071,503
13574132,508
13584172,506
13594173,505
13604231,508
13614271,503
13624269,509
13634330,507
13644373,505
13654374,509
13664441,509
13674491,502
13684492,508
13694540,512
13704606,514
13714642,519
13724648,513
13734714,519
13744757,521
13754764,526
13764829,528
13774867,524
13784871,526
13794934,521
13804976,523
13814982,519
13825046,515
13835090,513
13845092,512
13855156,504
13865199,510
13875199,503
13885259,505
13895298,502
13905297,496
13915342,503
13925404,496
13935441,500
13945447,499
13955507,500
13965541,503
13975546,508
13985611,503
13995651,510
14005654,507
14015718,504
14025763,509
14035769,507
14045831,510
14055875,507
14065879,509
14075944,506
14085991,504
14095994,501
14106059,504
14116103,504
14126103,504
14136151,500
14146215,506
14156215,498
14166264,502
14176329,505
14186330,502
14196380,497
14206444,506
14216484,504
14226487,504
14236551,506
14246593,500
14256598,503
14266661,502
14276704,508
14286708,502
14296775,508
14306820,510
14316819,509
14326882,506
14336929,506
14346928,501
14356987,508
14367028,509
14377024,510
14387069,508
14397134,500
14407130,505
14417175,506
14427236,506
14437234,505
14447280,507
14457346,510
14467388,512
14477394,513
14487459,510
14497503,522
14507506,523
14517570,525
14527613,529
14537614,532
14547678,530
14557724,526
14567722,523
14577786,523
14587831,525
14597826,516
14607871,520
14617934,516
14627930,513
14637976,510
14648042,507
14658037,508
14668084,506
14678146,498
14688180,497
14698183,505
14708246,502
14718288,504
14728290,502
14738351,502
14748396,499
14758399,509
14768466,510
14778514,507
14788519,504
14798587,511
14808639,506
14818645,510
14828698,509
14838766,506
14848769,508
14858819,509
14868887,508
14878889,507
14888939,507
14899007,507
14909010,506
14919059,502
14929126,501
14939169,506
14949173,505
14959240,507
14969288,504
14979295,507
14989362,505
14999409,505
15009410,507
15019474,504
15029522,503
15039523,505
15049569,508
15059637,508
15069640,502
15079691,502
15089758,506
15099760,502
15109810,504
15119877,501
15129873,505
15139918,503
15149984,505
15159982,500
15170031,503
15180098,507
15190145,508
15200151,499
15210217,508
15220259,505
15230261,506
15240322,508
15250362,505
15260359,501
15270422,512
15280466,509
15290465,508
15300512,515
15310580,522
15320582,517
15330633,522
15340701,527
15350704,526
15360755,516
15370822,520
15380821,523
15390868,519
15400934,508
15410936,510
15420984,509
15431048,502
15441048,507
15451094,504
15461155,501
15471199,502
15481199,496
15491262,500
15501305,500
15511302,502
15521349,494
15531415,500
15541414,503
15551460,504
15561522,502
15571520,500
15581570,506
15591637,501
15601640,505
15611689,509
15621757,502
15631760,501
15641812,507
15651883,500
15661886,503
15671937,510
15682004,508
15692006,506
15702057,501
15712121,504
15722167,506
15732168,505
15742215,506
15752280,504
15762282,499
15772332,506
15782397,506
15792393,505
15802436,497
15812496,502
15822495,504
15832541,498
15842603,501
15852602,507
15862651,499
15872715,502
15882714,499
15892766,504
15902833,506
15912834,504
15922883,504
15932951,506
15943001,499
15953006,503
15963055,502
15973123,505
15983123,508
15993169,502
16003235,511
16013234,503
16023283,514
16033348,510
16043346,515
16053397,515
16063465,517
16073467,523
16083516,524
16093579,525
16103579,526
16113626,523
16123690,522
16133691,521
16143740,511
16153803,518
16163800,509
16173843,512
16183901,506
16193941,506
16203938,502
16213984,505
16224047,502
16234047,506
16244095,504
16254159,503
16264159,505
16274209,501
16284273,504
16294269,509
16304312,499
16314373,507
16324374,508
16334419,507
16344481,509
16354476,509
16364521,505
16374582,513
16384577,513
16394622,513
16404686,511
16414686,507
16424734,506
16434782,505
16444846,511
16454845,509
16464893,508
16474957,511
16484954,503
16494999,510
16505060,505
16515056,507
16525098,510
16535161,509
16545161,510
16555209,511
16565275,510
16575277,506
16585328,511
16595395,511
16605396,504
16615446,511
16625513,503
16635515,503
16645561,509
16655610,503
16665630,504
16675678,500
16685724,510
16695741,509
16705786,509
16715834,517
16725900,518
16735898,515
16745944,523
16756007,524
16766005,519
16776050,521
16786114,524
16796111,524
16806156,520
16816217,519
16826212,513
16836253,511
16846314,511
16856309,510
16866348,506
16876390,502
16886397,504
16896437,508
16906480,503
16916494,498
16926537,504
16936585,501
16946604,501
16956652,497
16966697,498
16976759,503
16986757,501
16996804,506
17006865,502
17016861,504
17026902,503
17036961,506
17046957,504
17057002,503
17067061,507
17077056,508
17087096,501
17097138,504
17107153,502
17117199,505
17127247,506
17137265,503
17147315,504
17157363,503
17167381,505
17177431,502
17187481,499
17197501,498
17207550,506
17217599,503
17227666,502
17237667,498
17247716,499
17257781,506
17267785,506
17277835,503
17287903,506
17297906,503
17307956,502
17318020,505
17328018,503
17338064,505
17348106,504
17358121,505
17368170,504
17378217,502
17388231,508
17398275,508
17408322,511
17418336,508
17428383,517
17438430,515
17448454,520
17458500,527
17468548,526
17478616,521
17488617,522
17498664,525
17508731,518
17518729,524
17528775,517
17538841,514
17548840,512
17558890,508
17568942,507
17578959,510
17589004,506
17599050,504
17609067,504
17619113,502
17629161,506
17639178,503
17649226,503
17659275,501
17669291,502
17679340,502
17689392,498
17699415,507
17709461,506
17719506,503
17729571,507
17739571,505
17749616,508
17759680,507
17769677,508
17779722,511
17789770,507
17799785,508
17809830,502
17819877,508
17829894,511
17839940,500
17849984,501
17860000,501
17870048,507
17880096,503
17890113,503
17900161,503
17910209,501
17920229,500
17930279,498
17940331,507
17950352,506
17960403,503
17970453,502
17980522,505
17990527,502
18000580,503
18010632,502
18020651,502
18030703,505
18040757,507
18050780,502
18060833,501
18070884,507
18080902,506
18090951,504
18101000,504
18111020,506
18121073,497
18131127,504
18141143,502
18151190,503
18161240,513
18171260,511
18181311,513
18191358,513
18201374,518
18211418,520
18221462,521
18231529,519
18241528,520
18251576,521
18261627,516
18271646,511
18281692,506
18291737,505
18301748,505
18311791,510
18321833,504
18331846,499
18341889,504
18351934,496
18361944,501
18371987,502
18382031,501
18392045,501
18402091,499
18412133,500
18422149,500
18432196,502
18442242,501
18452256,503
18462302,500
18472350,496
18482397,499
18492414,501
18502461,500
18512509,506
18522527,505
18532574,499
18542618,507
18552635,508
18562683,506
18572733,508
18582756,506
18592807,499
18602855,504
18612873,499
18622922,503
18632971,503
18642990,503
18653039,500
18663085,501
18673103,500
18683150,499
18693197,498
18703213,498
18713262,502
18723314,503
18733365,505
18743382,500
18753431,502
18763479,504
18773498,503
18783548,496
18793599,503
18803617,504
18813668,502
18823717,506
18833730,503
18843772,504
18853818,505
18863830,501
18873876,506
18883922,514
18893936,509
18903982,509
18914024,518
18924034,519
18934076,524
18944117,525
18954128,526
18964171,526
18974214,521
18984260,524
18994275,518
19004322,518
19014367,520
19024383,520
19034434,512
19044484,517
19054500,510
19064546,503
19074593,509
19084610,500
19094659,508
19104706,505
19114721,502
19124768,499
19134817,506
19144835,504
19154885,509
19164934,502
19174951,504
19184998,506
19195045,506
19205064,509
19215110,504
19225157,508
19235210,506
19245233,511
19255289,507
19265341,506
19275365,505
19285418,509
19295476,502
19305493,505
19315538,506
19325586,507
19335601,503
19345648,501
19355693,506
19365709,509
19375754,506
19385795,507
19395807,507
19405850,509
19415894,508
19425908,510
19435952,505
19445997,509
19456010,501
19466053,506
19476099,508
19486147,503
19496162,505
19506210,506
19516254,506
19526271,503
19536321,507
19546369,504
19556384,504
19566430,509
19576476,500
19586493,507
19596540,510
19606587,512
19616602,516
19626648,512
19636695,522
19646710,522
19656756,530
19666805,530
19676821,530
19686868,527
19696911,529
19706925,532
19716972,529
19727019,525
19737063,525
19747075,519
19757122,512
19767168,520
19777184,510
19787228,511
19797270,511
19807282,507
19817328,509
19827373,507
19837386,504
19847430,503
19857475,499
19867491,507
19877535,505
19887579,507
19897592,501
19907636,509
19917680,507
19927693,508
19937741,505
19947790,511
19957837,512
19967854,512
19977901,508
19987945,510
19997960,505
20008006,503
20018050,507
20028067,505
20038115,503
20048165,506
20058182,506
20068231,511
20078279,508
20088298,507
20098345,504
20108392,506
20118409,508
20128456,507
20138504,506
20148520,505
20158569,506
20168620,501
20178637,500
20188687,499
20198736,506
20208785,504
20218804,508
20228853,504
20238901,500
20248921,499
20258971,506
20269018,507
20279035,501
20289081,503
20299131,506
20309151,508
20319204,501
20329254,508
20339273,508
20349325,508
20359378,514
20369395,517
20379445,524
20389492,518
20399506,526
20409549,528
20419595,529
20429611,523
20439658,527
20449705,521
20459748,522
20469762,521
20479810,513
20489861,510
20499880,512
20509931,505
20519984,510
20530002,503
20540050,507
20550098,506
20560116,503
20570162,503
20580207,506
20590222,501
20600267,504
20610313,501
20620330,503
20630378,506
20640426,505
20650446,506
20660498,507
20670548,505
20680568,503
20690617,505
20700666,507
20710714,508
20720735,506
20730785,507
20740835,501
20750851,508
20760900,504
20770947,504
20780964,506
20791009,502
20801058,507
20811074,508
20821121,506
20831168,504
20841184,502
20851232,506
20861280,505
20871298,504
20881346,509
20891393,506
20901407,504
20911453,508
20921502,505
20931521,507
20941570,502
20951617,500
20961664,507
20971680,507
20981727,502
20991773,500
21001790,505
21011838,502
21021888,501
21031907,508
21041957,507
21052006,508
21062027,504
21072074,509
21082124,507
21092143,506
21102193,506
21112244,507
21122265,506
21132315,507
21142362,506
21152378,515
21162427,515
21172477,521
21182496,520
21192544,527
21202592,526
21212644,527
21222664,526
21232714,525
21242762,527
21252779,520
21262827,521
21272875,522
21282894,519
21292939,516
21302985,512
21313000,513
21323045,514
21333091,512
21343109,502
21353156,510
21363203,509
21373219,507
21383264,507
21393309,504
21403326,507
21413372,507
21423420,504
21433434,511
21443480,509
21453523,509
21463571,511
21473588,512
21483639,507
21493688,507
21503703,508
21513751,508
21523799,503
21533817,508
21543864,508
21553910,511
21563925,510
21573969,508
21584012,509
21594026,504
21604073,506
21614119,507
21624136,503
21634183,502
21644230,507
21654248,507
21664296,504
21674345,506
21684366,505
21694416,502
21704466,506
21714510,499
21724524,506
21734570,506
21744620,507
21754637,506
21764684,505
21774726,503
21784739,505
21794784,502
21804831,506
21814849,504
21824894,506
21834941,503
21844957,507
21855005,507
21865050,504
21875065,503
21885110,508
21895155,508
21905168,509
21915211,515
21925256,512
21935270,516
21945313,526
21955356,528
21965370,530
21975412,527
21985453,525
21995496,531
22005511,530
22015557,526
22025604,526
22035617,525
22045658,518
22055705,516
22065715,515
22075757,513
22085800,503
22095818,508
22105865,508
22115910,506
22125925,506
22135972,506
22146019,505
22156034,500
22166082,505
22176128,502
22186146,501
22196194,504
22206240,502
22216255,508
22226299,504
22236343,506
22246387,503
22256400,506
22266447,506
22276492,512
22286503,506
22296547,503
22306592,510
22316606,511
22326648,506
22336692,509
22346706,508
22356747,508
22366791,502
22376804,504
22386850,503
22396893,502
22406906,503
22416949,504
22426994,498
22437007,506
22447052,502
22457094,500
22467136,497
22477149,506
22487193,507
22497235,503
22507248,504
22517290,502
22527329,503
22537339,508
22547380,506
22557423,501
22567437,502
22577482,506
22587528,504
22597539,498
22607582,500
22617629,505
22627640,501
22637683,504
22647727,505
22657739,500
22667781,497
22677825,504
22687839,505
22697878,505
22707919,505
22717933,511
22727979,511
22738029,518
22748081,517
22758102,524
22768153,526
22778198,526
22788211,523
22798250,528
22808292,529
22818305,526
22828347,526
22838391,520
22848404,517
22858448,515
22868490,512
22878502,512
22888545,507
22898588,511
22908601,505
22918643,505
22928688,505
22938702,503
22948748,500
22958792,495
22968828,500
22978838,501
22988878,501
22998919,506
23008929,501
23018972,505
23029014,502
23039025,500
23049068,506
23059107,510
23069113,511
23079153,511
23089194,505
23099204,507
23109246,504
23119288,501
23129299,501
23139340,503
23149382,506
23159391,503
23169431,501
23179470,506
23189475,506
23199512,508
23209551,505
23219590,500
23229595,502
23239634,503
23249673,502
23259685,507
23269728,499
23279771,500
23289785,506
23299824,506
23309866,508
23319878,508
23329922,509
23339964,501
23349978,507
23360019,506
23370060,501
23380070,503
23390111,508
23400152,508
23410162,507
23420202,501
23430243,500
23440254,507
23450296,508
23460335,508
23470347,505
23480390,506
23490430,506
23500471,500
23510483,503
23520525,503
23530568,504
23540581,506
23550623,508
23560667,509
23570679,507
23580721,513
23590761,521
23600770,525
23610812,529
23620853,531
23630866,530
23640910,533
23650954,525
23660963,527
23671003,519
23681046,526
23691058,521
23701099,517
23711139,512
23721178,512
23731187,510
23741226,508
23751266,505
23761276,500
23771318,501
23781361,495
23791372,494
23801411,499
23811451,497
23821459,492
23831499,500
23841537,497
23851547,499
23861587,503
23871630,496
23881636,505
23891673,505
23901712,502
23911716,506
23921753,503
23931792,503
23941800,508
23951837,504
23961877,503
23971917,502
23981923,506
23991956,505
24001989,504
24011995,506
24022032,504
24032066,502
24042074,496
24052109,502
24062146,503
24072156,504
24082196,505
24092236,497
24102247,502
24112290,508
24122334,506
24132346,503
24142391,504
24152432,502
24162442,501
24172487,499
24182531,500
24192542,504
24202585,504
24212627,505
24222671,506
24232682,504
24242724,506
24252769,501
24262780,505
24272817,509
24282859,503
24292873,501
24302917,504
24312960,504
24322974,506
24333022,499
24343070,499
24353081,507
24363125,504
24373164,503
24383174,502
24393216,501
24403255,508
24413264,505
24423306,511
24433348,511
24443356,514
24453398,516
24463439,519
24473480,516
24483493,521
24493538,519
24503579,519
24513590,525
24523631,523
24533675,516
24543689,515
24553736,513
24563783,512
24573798,515
24583841,508
24593880,510
24603888,508
24613927,508
24623968,505
24633978,506
24644019,498
24654062,502
24664073,505
24674113,504
24684158,502
24694175,508
24704222,502
24714269,506
24724312,503
24734324,503
24744364,503
24754410,502
24764422,504
24774462,505
24784502,508
24794509,505
24804549,510
24814589,509
24824597,511
24834637,509
24844679,503
24854689,504
24864733,510
24874777,501
24884790,500
24894835,505
24904877,502
24914890,502
24924936,501
24934983,505
24944996,508
24955039,507
24965081,503
24975120,507
24985133,508
24995176,505
25005220,508
25015234,506
25025279,499
25035323,504
25045335,501
25055382,501
25065424,507
25075433,508
25085476,502
25095522,499
25105539,500
25115585,498
25125630,501
25135644,502
25145688,506
25155733,498
25165748,508
25175792,499
25185836,501
25195851,507
25205896,501
25215940,509
25225953,508
25235996,506
25246041,507
25256084,507
25266096,507
25276139,512
25286185,513
25296198,523
25306249,521
25316297,517
25326313,523
25336357,523
25346401,519
25356416,524
25366459,515
25376502,511
25386517,515
25396560,514
25406601,515
25416614,508
25426658,506
25436708,508
25446724,503
25456771,509
25466816,501
25476858,504
25486870,506
25496912,499
25506953,501
25516962,507
25527003,509
25537043,506
25547054,504
25557098,510
25567140,507
25577149,508
25587188,507
25597228,506
25607237,509
25617279,509
25627319,508
25637329,508
25647372,507
25657413,505
25667423,501
25677463,508
25687500,507
25697507,500
25707548,503
25717587,506
25727628,508
25737640,504
25747682,506
25757724,507
25767734,507
25777772,508
25787810,499
25797819,506
25807854,508
25817895,505
25827904,508
25837943,504
25847980,507
25857987,505
25868028,506
25878068,507
25888079,505
25898122,504
25908166,504
25918176,508
25928218,502
25938259,507
25948265,506
25958307,501
25968353,504
25978366,502
25988410,500
25998454,503
26008499,506
26018514,503
26028560,508
26038609,510
26048626,513
26058672,514
26068718,516
26078728,516
26088771,516
26098815,516
26108830,514
26118877,523
26128922,519
26138937,519
26148983,523
26159030,520
26169044,512
26179088,513
26189132,513
26199148,512
26209196,514
26219241,513
26229293,508
26239308,506
26249356,508
26259403,507
26269419,506
26279463,508
26289505,503
26299516,505
26309558,507
26319595,510
26329604,506
26339646,506
26349692,511
26359704,508
26369748,509
26379793,512
26389805,507
26399845,507
26409885,506
26419900,502
26429946,505
26439992,509
26450005,503
26460049,505
26470090,508
26480100,510
26490140,511
26500185,502
26510229,510
26520242,508
26530282,510
26540323,508
26550331,509
26560371,509
26570409,509
26580416,502
26590455,509
26600492,508
26610501,501
26620543,507
26630584,508
26640591,503
26650630,505
26660669,508
26670681,507
26680723,501
26690765,503
26700776,501
26710817,506
26720856,506
26730867,508
26740911,508
26750951,505
26760993,503
26771004,510
26781047,510
26791089,512
26801100,507
26811141,509
26821183,513
26831191,521
26841235,518
26851275,525
26861284,521
26871327,526
26881368,525
26891380,525
26901422,519
26911461,516
26921472,512
26931514,516
26941558,511
26951570,515
26961611,505
26971652,509
26981662,502
26991701,506
27001739,509
27011776,503
27021784,505
27031824,505
27041865,506
27051875,501
27061917,505
27071959,500
27081971,504
27092013,508
27102056,505
27112066,512
27122104,506
27132144,506
27142156,502
27152194,512
27162233,503
27172247,509
27182290,510
27192336,506
27202349,502
27212392,506
27222435,504
27232447,504
27242486,507
27252526,508
27262568,504
27272580,503
27282623,507
27292668,509
27302681,505
27312726,509
27322771,503
27332784,505
27342829,502
27352871,504
27362879,509
27372921,508
27382966,504
27392979,504
27403020,500
27413065,499
27423077,510
27433119,502
27443159,503
27453169,504
27463211,506
27473253,503
27483268,504
27493311,503
27503355,502
27513396,510
27523407,508
27533449,511
27543494,515
27553505,517
27563552,520
27573596,524
27583613,524
27593660,526
27603708,526
27613723,528
27623768,526
27633813,526
27643826,525
27653866,516
27663908,519
27673920,513
27683963,517
27694007,513
27704018,513
27714057,508
27724097,510
27734106,501
27744144,499
27754182,500
27764219,507
27774226,505
27784264,504
27794301,501
27804308,508
27814344,502
27824380,508
27834386,507
27844422,508
27854460,499
27864470,510
27874510,510
27884552,506
27894563,510
27904604,509
27914645,502
27924659,509
27934700,507
27944739,504
27954749,506
27964791,507
27974829,504
27984866,506
27994877,501
28004917,506
28014957,507
28024970,505
28035012,504
28045054,505
28055073,499
28065123,498
28075171,504
28085183,505
28095222,498
28105261,501
28115271,501
28125311,499
28135347,501
28145353,502
28155393,503
28165432,502
28175445,498
28185489,505
28195533,505
28205546,498
28215589,505
28225629,507
28235638,504
28245680,500
28255722,502
28265763,503
28275771,505
28285813,509
28295851,511
28305858,508
28315898,517
28325936,509
28335946,519
28345986,517
28356025,521
28366036,520
28376075,518
28386113,519
28396123,514
28406167,516
28416206,515
28426216,513
28436254,505
28446293,511
28456301,508
28466339,504
28476374,506
28486381,508
28496422,508
28506468,499
28516516,504
28526531,504
28536576,508
28546621,504
28556635,506
28566683,503
28576729,503
28586746,508
28596794,507
28606842,507
28616860,502
28626906,507
28636946,504
28646953,504
28656994,503
28667033,506
28677040,504
28687079,507
28697122,507
28707129,505
28717170,506
28727212,504
28737224,504
28747267,504
28757309,502
28767348,499
28777361,503
28787403,503
28797444,504
28807450,507
28817487,503
28827528,504
28837533,500
28847574,499
28857613,507
28867623,506
28877662,508
28887703,504
28897713,501
28907755,506
28917799,506
28927813,508
28937855,506
28947896,506
28957904,505
28967943,508
28977981,503
28988020,508
28998030,504
29008070,506
29018112,501
29028124,507
29038166,508
29048204,508
29058216,515
29068261,513
29078305,513
29088317,519
29098363,519
29108407,519
29118418,515
29128461,514
29138502,518
29148511,513
29158551,510
29168593,515
29178604,512
29188645,505
29198685,503
29208697,507
29218735,506
29228777,503
29238787,509
29248828,507
29258867,509
29268907,506
29278912,504
29288950,507
29298989,504
29308997,502
29319037,509
29329077,505
29339086,506
29349122,504
29359160,502
29369169,507
29379208,507
29389244,508
29399249,509
29409286,508
29419326,508
29429333,505
29439372,509
29449412,507
29459422,503
29469463,501
29479504,504
29489515,508
29499558,504
29509597,512
29519639,508
29529651,508
29539693,511
29549734,506
29559742,508
29569782,512
29579823,508
29589831,508
29599875,510
29609917,510
29619926,512
29629966,510
29640003,506
29650011,507
29660050,511
29670089,510
29680097,508
29690135,505
29700173,504
29710181,508
29720220,508
29730257,505
29740265,503
29750306,512
29760345,514
29770385,510
29780397,518
29790437,513
29800475,524
29810483,519
29820521,516
29830562,515
29840572,521
29850610,523
29860646,520
29870652,519
29880689,517
29890728,516
29900736,513
29910774,509
29920812,513
29930817,509
29940854,504
29950893,506
29960902,506
29970938,503
29980972,502
29991008,501
30001016,498
30011050,504
30021083,503
30031089,505
30041125,502
30051161,506
30061167,503
30071207,505
30081245,507
30091254,504
30101296,506
30111341,506
30121352,505
30131391,508
30141434,503
30151444,504
30161486,509
30171528,510
30181541,507
30191584,502
30201625,508
30211634,511
30221677,509
30231719,503
30241759,501
30251769,509
30261809,508
30271850,509
30281857,504
30291895,508
30301933,507
30311939,510
30321978,507
30332018,506
30342027,502
30352062,502
30362097,510
30372102,506
30382143,506
30392179,507
30402186,506
30412227,509
30422268,506
30432277,509
30442318,510
30452356,505
30462363,514
30472399,510
30482438,520
30492477,520
30502485,521
30512524,517
30522562,524
30532565,517
30542601,519
30552639,517
30562646,518
30572682,516
30582716,517
30592721,515
30602755,513
30612785,509
30622787,507
30632821,512
30642852,509
30652855,502
30662888,509
30672925,508
30682931,505
30692968,504
30703006,506
30713008,507
30723036,506
30733070,504
30743076,508
30753110,503
30763146,503
30773180,501
30783181,509
30793215,511
30803249,501
30813252,508
30823288,507
30833323,505
30843327,510
30853363,509
30863400,504
30873406,510
30883446,501
30893483,503
30903489,501
30913525,504
30923561,501
30933567,511
30943602,507
30953641,499
30963650,504
30973691,505
30983729,507
30993770,505
31003776,506
31013816,507
31023858,505
31033866,504
31043903,508
31053945,511
31063954,506
31073990,503
31084028,501
31094034,510
31104073,508
31114109,506
31124116,503
31134154,506
31144193,507
31154199,508
31164235,515
31174271,510
31184279,514
31194317,518
31204358,518
31214366,523
31224403,519
31234438,523
31244444,527
31254483,520
31264521,519
31274562,523
31284569,520
31294608,520
31304649,514
31314658,520
31324698,517
31334742,515
31344751,512
31354791,509
31364833,512
31374844,506
31384885,510
31394926,501
31404939,509
31414980,504
31425021,507
31435035,509
31445075,510
31455118,509
31465129,501
31475170,505
31485211,502
31495221,506
31505262,508
31515305,511
31525347,505
31535359,510
31545399,501
31555438,506
31565448,509
31575488,509
31585528,506
31595539,500
31605578,504
31615616,508
31625624,502
31635661,506
31645696,506
31655702,507
31665739,505
31675775,501
31685780,508
31695814,505
31705845,505
31715849,505
31725888,507
31735924,501
31745931,508
31755969,506
31766005,509
31776041,508
31786046,505
31796086,509
31806126,507
31816136,501
31826175,509
31836213,501
31846223,506
31856263,508
31866302,504
31876311,502
31886352,505
31896388,510
31906391,506
31916428,508
31926466,513
31936476,510
31946514,515
31956552,517
31966560,513
31976596,521
31986635,521
31996674,524
32006684,519
32016720,518
32026760,522
32036770,520
32046808,518
32056844,516
32066847,520
32076884,512
32086925,514
32096935,514
32106975,511
32117013,509
32127023,510
32137058,511
32147095,508
32157105,509
32167147,509
32177191,502
32187203,504
32197247,501
32207288,507
32217299,504
32227342,508
32237384,510
32247424,504
32257434,508
32267475,504
32277518,509
32287530,508
32297571,505
32307613,508
32317626,509
32327668,508
32337711,507
32347720,507
32357761,506
32367806,508
32377817,501
32387862,505
32397905,505
32407916,504
32417955,504
32427996,501
32438006,505
32448047,508
32458087,507
32468096,504
32478136,504
32488175,506
32498215,507
32508225,500
32518265,508
32528305,506
32538315,507
32548354,501
32558392,510
32568401,501
32578443,505
32588484,505
32598495,510
32608536,501
32618577,508
32628586,511
32638626,505
32648668,508
32658678,509
32668720,507
32678763,509
32688773,511
32698815,504
32708855,510
32718864,509
32728904,513
32738942,516
32748950,513
32758989,515
32769027,515
32779063,522
32789076,527
32799117,518
32809158,517
32819167,525
32829206,520
32839244,520
32849255,520
32859298,516
32869341,514
32879353,511
32889397,511
32899439,509
32909452,512
32919496,503
32929537,509
32939550,501
32949594,510
32959638,506
32969656,503
32979697,502
32989730,507
32999765,510
33009776,512
33019817,503
33029861,510
33039873,513
33049914,507
33059954,512
33069968,510
33080013,508
33090057,510
33100075,506
33110121,510
33120165,508
33130181,510
33140226,507
33150269,502
33160285,510
33170332,502
33180375,509
33190387,502
33200430,506
33210472,504
33220483,505
33230530,503
33240575,508
33250620,509
33260631,504
33270677,502
33280721,508
33290735,504
33300779,504
33310822,501
33320833,506
33330877,496
33340922,506
33350941,508
33360991,508
33371042,503
33381064,506
33391116,506
33401164,505
33411178,508
33421222,510
33431267,508
33441282,506
33451325,506
33461368,509
33471381,506
33481428,505
33491476,509
33501522,508
33511540,507
33521589,507
33531639,513
33541657,514
33551699,517
33561741,520
33571756,517
33581799,520
33591845,516
33601859,518
33611901,520
33621947,518
33631959,513
33642000,514
33652042,509
33662054,516
33672104,505
33682150,507
33692169,510
33702220,504
33712273,509
33722292,506
33732335,508
33742377,505
33752417,503
33762429,509
33772471,503
33782515,509
33792530,501
33802576,505
33812619,509
33822632,504
33832672,506
33842716,508
33852728,506
33862771,501
33872812,506
33882825,505
33892869,504
33902914,503
33912927,505
33922970,508
33933016,509
33943029,507
33953072,504
33963117,508
33973132,505
33983180,499
33993229,503
34003242,502
34013285,504
34023326,504
34033371,509
34043384,503
34053427,506
34063470,503
34073482,510
34083525,510
34093567,509
34103579,505
34113621,501
34123663,510
34133672,509
34143714,508
34153756,501
34163765,506
34173804,501
34183843,510
34193850,508
34203888,508
34213928,510
34223940,509
34233982,508
34244023,502
34254035,502
34264077,512
34274121,507
34284160,507
34294177,503
34304225,507
34314272,514
34324289,510
34334331,509
34344373,513
34354387,515
34364429,510
34374474,515
34384488,510
34394532,518
34404576,513
34414587,510
34424629,515
34434668,514
34444678,506
34454718,503
34464758,503
34474767,504
34484807,505
34494845,505
34504884,506
34514894,506
34524934,506
34534972,508
34544985,501
34555029,502
34565071,507
34575083,510
34585127,507
34595170,505
34605181,508
34615222,508
34625262,507
34635271,509
34645312,507
34655353,509
34665364,502
34675407,501
34685443,507
34695454,508
34705492,506
34715528,505
34725534,503
34735574,511
34745613,503
34755621,508
34765662,505
34775703,503
34785742,510
34795751,509
34805789,504
34815826,506
34825833,509
34835871,510
34845910,507
34855918,508
34865963,507
34876004,502
34886017,504
34896061,508
34906105,501
34916118,509
34926158,510
34936198,510
34946207,508
34956249,510
34966290,506
34976300,506
34986340,508
34996380,509
35006418,501
35016425,509
35026463,503
35036497,508
35046504,504
35056543,509
35066585,510
35076596,503
35086639,508
35096680,511
35106689,512
35116731,511
35126775,511
35136788,512
35146832,514
35156876,511
35166889,512
35176928,510
35186967,510
35196980,513
35207024,510
35217063,502
35227072,508
35237111,503
35247149,510
35257157,501
35267195,509
35277232,508
35287274,509
35297284,504
35307322,506
35317361,506
35327369,509
35337408,508
35347449,501
35357461,504
35367502,509
35377540,505
35387550,505
35397588,503
35407628,505
35417638,507
35427679,507
35437717,509
35447724,511
35457762,503
35467802,510
35477811,511
35487847,506
35497885,510
35507925,507
35517936,504
35527977,504
35538016,509
35548026,509
35558070,505
35568110,508
35578117,509
35588161,503
35598206,509
35608217,510
35618256,505
35628293,509
35638301,511
35648342,509
35658381,507
35668389,512
35678425,507
35688459,506
35698462,505
35708500,511
35718539,509
35728547,509
35738586,510
35748621,509
35758656,506
35768658,512
35778689,510
35788718,510
35798721,513
35808757,517
35818791,512
35828796,516
35838831,516
35848868,519
35858876,516
35868919,515
35878962,512
35888972,514
35899012,513
35909051,507
35919057,510
35929094,509
35939131,505
35949137,504
35959170,509
35969206,511
35979214,504
35989255,510
35999294,506
36009333,504
36019341,510
36029379,501
36039417,506
36049420,509
36059453,510
36069489,509
36079498,508
36089535,507
36099573,502
36109581,505
36119618,510
36129659,506
36139667,508
36149705,511
36159745,509
36169754,511
36179790,503
36189827,508
36199837,501
36209878,505
36219919,512
36229931,504
36239974,505
36250017,502
36260025,506
36270062,501
36280099,502
36290136,507
36300145,508
36310189,509
36320232,510
36330246,502
36340292,502
36350340,508
36360355,504
36370398,508
36380443,511
36390457,504
36400501,507
36410546,510
36420560,503
36430608,509
36440654,507
36450669,511
36460712,505
36470756,509
36480770,512
36490812,514
36500858,511
36510870,514
36520909,518
36530950,512
36540991,519
36551000,513
36561043,514
36571085,514
36581098,515
36591140,510
36601181,511
36611194,506
36621236,510
36631274,503
36641285,511
36651327,509
36661371,502
36671383,507
36681425,501
36691467,500
36701479,500
36711519,505
36721560,508
36731568,508
36741611,506
36751652,499
36761661,508
36771703,504
36781748,510
36791797,502
36801813,506
36811862,506
36821908,508
36831927,504
36841975,510
36852020,510
36862036,510
36872077,506
36882120,503
36892131,505
36902167,502
36912209,507
36922220,506
36932259,510
36942300,506
36952310,504
36962353,509
36972396,505
36982405,501
36992446,508
37002487,507
37012528,506
37022541,504
37032582,507
37042621,508
37052627,510
37062663,509
37072707,504
37082720,508
37092761,507
37102803,509
37112817,509
37122859,501
37132901,510
37142911,510
37152948,510
37162985,510
37172990,505
37183029,507
37193066,506
37203073,508
37213111,512
37223150,512
37233157,508
37243194,517
37253226,512
37263263,508
37273273,517
37283312,513
37293354,514
37303366,510
37313407,509
37323447,509
37333457,503
37343496,505
37353535,512
37363545,509
37373585,511
37383626,503
37393637,506
37403678,505
37413721,510
37423735,505
37433778,505
37443823,509
37453833,508
37463876,505
37473919,505
37483928,506
37493968,507
37504009,508
37514018,510
37524053,501
37534095,506
37544136,509
37554148,508
37564189,507
37574231,510
37584242,505
37594286,511
37604330,509
37614343,509
37624394,505
37634443,510
37644464,510
37654512,503
37664556,508
37674564,506
37684607,508
37694650,507
37704660,502
37714698,510
37724738,510
37734745,512
37744787,512
37754830,510
37764841,507
37774886,505
37784928,508
37794969,515
37804983,508
37815026,505
37825069,505
37835083,505
37845127,506
37855171,512
37865185,508
37875228,508
37885270,509
37895280,508
37905316,510
37915358,509
37925368,508
37935410,509
37945452,502
37955463,508
37965503,513
37975546,505
37985560,509
37995603,512
38005646,513
38015656,519
38025698,513
38035738,515
38045780,516
38055794,514
38065838,514
38075878,517
38085884,517
38095926,512
38105967,513
38115978,512
38126022,509
38136069,512
38146083,510
38156124,510
38166170,503
38176185,503
38186227,510
38196270,509
38206282,506
38216325,505
38226362,506
38236366,508
38246404,510
38256440,510
38266444,509
38276482,510
38286521,510
38296562,512
38306571,509
38316615,512
38326658,510
38336669,509
38346709,505
38356746,505
38366755,510
38376795,512
38386830,510
38396833,508
38406870,511
38416906,509
38426915,509
38436956,510
38446999,508
38457007,504
38467046,508
38477087,503
38487097,510
38497136,509
38507176,512
38517183,508
38527225,508
38537267,510
38547313,503
38557328,511
38567368,505
38577401,503
38587404,502
38597439,511
38607475,509
38617478,511
38627512,509
38637545,510
38647548,506
38657582,512
38667618,508
38677628,509
38687667,510
38697701,505
38707706,506
38717741,505
38727779,504
38737786,507
38747820,505
38757856,511
38767864,512
38777902,513
38787941,514
38797978,515
38807987,509
38818023,513
38828060,513
38838064,512
38848100,505
38858137,505
38868140,513
38878177,502
38888215,510
38898220,509
38908257,510
38918291,505
38928296,504
38938334,503
38948370,509
38958376,508
38968411,507
38978447,501
38988453,505
38998491,508
39008524,506
39018529,506
39028565,508
39038600,509
39048634,509
39058638,503
39068675,506
39078713,512
39088721,512
39098760,505
39108799,511
39118807,512
39128846,513
39138884,507
39148886,511
39158923,509
39168963,511
39178975,503
39189017,506
39199057,512
39209066,509
39219107,504
39229148,507
39239155,511
39249194,508
39259233,507
39269235,506
39279268,512
39289306,509
39299345,506
39309352,508
39319390,509
39329427,511
39339435,504
39349470,509
39359510,505
39369519,512
39379559,508
39389600,512
39399609,510
39409647,511
39419687,509
39429696,506
39439735,507
39449777,505
39459788,503
39469829,509
39479869,504
39489875,503
39499913,504
39509955,511
39519965,512
39530005,515
39540047,509
39550087,512
39560098,510
39570139,516
39580179,511
39590188,508
39600228,506
39610267,513
39620277,511
39630319,512
39640366,503
39650382,511
39660430,511
39670475,506
39680484,500
39690527,506
39700570,506
39710582,509
39720623,505
39730664,504
39740671,506
39750712,509
39760752,508
39770797,508
39780809,506
39790850,503
39800892,509
39810904,511
39820947,510
39830987,508
39840996,512
39851034,508
39861074,508
39871084,511
39881123,511
39891161,508
39901165,505
39911203,506
39921244,511
39931257,503
39941299,505
39951339,506
39961349,509
39971388,506
39981427,510
39991437,511
40001478,510
40011518,504
40021530,509
40031569,512
40041612,511
40051650,511
40061658,505
40071697,510
40081736,509
40091746,505
40101789,507
40111831,507
40121844,511
40131886,509
40141926,502
40151936,504
40161975,508
40172016,510
40182026,501
40192066,507
40202106,511
40212116,511
40222156,510
40232195,510
40242202,509
40252239,513
40262276,513
40272282,518
40282321,513
40292357,522
40302396,521
40312405,519
40322441,524
40332479,524
40342485,515
40352523,522
40362561,513
40372568,518
40382605,514
40392641,509
40402650,509
40412688,509
40422727,505
40432736,505
40442774,510
40452808,506
40462815,505
40472855,505
40482895,504
40492906,507
40502949,500
40512991,506
40522999,509
40533038,505
40543078,510
40553120,508
40563128,506
40573168,509
40583209,510
40593220,509
40603256,508
40613293,506
40623302,510
40633340,509
40643375,507
40653378,512
40663417,509
40673455,508
40683461,510
40693500,512
40703540,510
40713550,503
40723592,511
40733634,507
40743638,513
40753678,507
40763717,510
40773757,510
40783764,511
40793802,509
40803838,508
40813845,508
40823882,508
40833922,512
40843929,502
40853969,507
40864009,512
40874019,510
40884060,511
40894101,510
40904111,511
40914150,510
40924185,510
40934192,509
40944233,508
40954271,505
40964282,501
40974321,507
40984361,502
40994370,509
41004408,510
41014447,506
41024455,507
41034491,513
41044528,509
41054566,507
41064577,513
41074617,515
41084652,512
41094659,513
41104695,516
41114733,512
41124738,512
41134770,513
41144801,507
41154801,509
41164839,513
41174876,503
41184884,511
41194921,510
41204961,508
41214969,509
41225005,504
41235040,505
41245048,509
41255087,512
41265121,512
41275162,504
41285174,503
41295216,503
41305253,503
41315261,508
41325303,500
41335342,501
41345348,508
41355384,503
41365419,508
41375425,508
41385456,503
41395489,510
41405490,504
41415525,510
41425560,506
41435566,508
41445598,510
41455630,503
41465634,508
41475668,508
41485703,508
41495708,509
41505743,507
41515779,504
41525817,501
41535825,509
41545862,508
41555901,509
41565909,505
41575946,512
41585982,510
41595989,504
41606027,505
41616066,512
41626076,503
41636115,509
41646154,503
41656159,510
41666194,507
41676232,507
41686238,511
41696277,507
41706316,509
41716325,514
41726362,517
41736401,512
41746406,516
41756443,517
41766482,517
41776519,513
41786526,516
41796562,511
41806598,511
41816605,514
41826642,509
41836680,506
41846683,510
41856716,505
41866746,503
41876750,509
41886789,504
41896830,510
41906837,505
41916876,510
41926915,505
41936922,503
41946960,501
41956996,506
41967003,501
41977039,502
41987079,504
41997087,509
42007126,507
42017164,512
42027202,504
42037211,508
42047252,505
42057292,511
42067301,504
42077340,512
42087381,512
42097393,505
42107435,505
42117482,510
42127499,510
42137541,502
42147583,503
42157596,505
42167637,506
42177678,503
42187687,504
42197727,508
42207767,506
42217775,505
42227814,510
42237854,505
42247869,509
42257915,503
42267958,513
42277974,504
42288021,511
42298069,511
42308112,508
42318123,503
42328167,511
42338210,508
42348225,505
42358274,504
42368321,516
42378329,518
42388368,516
42398410,521
42408423,521
42418470,525
42428516,524
42438527,521
42448565,522
42458604,516
42468614,513
42478651,522
42488688,511
42498698,510
42508740,510
42518784,510
42528793,506
42538836,506
42548878,513
42558918,503
42568928,506
42578971,508
42589009,508
42599016,507
42609052,508
42619091,506
42629100,507
42639138,508
42649178,505
42659189,505
42669233,508
42679274,503
42689280,510
42699317,510
42709358,503
42719370,510
42729415,503
42739458,507
42749471,507
42759515,509
42769561,503
42779575,512
42789622,509
42799667,507
42809713,511
42819727,512
42829775,502
42839820,509
42849833,510
42859877,509
42869921,506
42879935,508
42889978,510
42900019,508
42910033,503
42920074,504
42930116,508
42940127,503
42950168,509
42960212,508
42970227,508
42980270,507
42990316,508
43000331,507
43010377,508
43020424,510
43030438,503
43040482,503
43050524,512
43060563,503
43070568,513
43080606,503
43090648,509
43100661,512
43110704,509
43120747,510
43130758,509
43140799,512
43150838,509
43160840,512
43170875,514
43180915,506
43190926,513
43200969,509
43211008,509
43221018,509
43231055,507
43241093,510
43251101,502
43261141,509
43271185,503
43281201,504
43291250,508
43301294,508
43311338,507
43321353,508
43331397,512
43341441,507
43351454,511
43361495,511
43371537,510
43381551,509
43391595,509
43401640,503
43411653,513
43421692,507
43431732,510
43441743,514
43451784,509
43461825,509
43471839,506
43481878,505
43491916,510
43501926,508
43511970,505
43522014,510
43532028,511
43542071,514
43552112,507
43562153,505
43572165,512
43582211,504
43592254,512
43602265,502
43612308,506
43622350,510
43632362,506
43642401,508
43652444,508
43662456,501
43672498,509
43682541,507
43692555,510
43702600,507
43712643,509
43722656,506
43732699,503
43742747,510
43752762,512
43762804,511
43772852,512
43782867,517
43792915,514
43802956,518
43813001,512
43823015,518
43833065,517
43843115,520
43853133,512
43863177,519
43873219,516
43883229,514
43893269,512
43903310,513
43913322,513
43923366,510
43933408,510
43943422,501
43953464,510
43963506,507
43973520,501
43983564,509
43993605,503
44003617,506
44013658,509
44023702,507
44033718,501
44043763,509
44053805,506
44063849,507
44073864,511
44083909,508
44093952,509
44103963,510
44114005,509
44124050,504
44134061,506
44144103,505
44154143,509
44164157,503
44174200,507
44184244,510
44194257,511
44204299,513
44214342,508
44224354,508
44234397,502
44244442,508
44254453,511
44264498,511
44274542,505
44284584,507
44294596,503
44304640,503
44314682,509
44324692,502
44334732,512
44344768,511
44354773,505
44364815,513
44374855,510
44384867,509
44394909,512
44404954,502
44414969,506
44425018,507
44435071,510
44445093,510
44455145,510
44465200,512
44475222,508
44485274,512
44495322,511
44505337,515
44515382,521
44525424,520
44535440,517
44545486,516
44555532,514
44565577,511
44575591,521
44585636,510
44595682,508
44605700,512
44615745,510
44625793,509
44635807,502
44645853,502
44655900,501
44665917,503
44675963,506
44686012,510
44696028,510
44706077,508
44716124,505
44726139,504
44736183,503
44746227,509
44756241,501
44766287,506
44776331,508
44786374,507
44796386,503
44806430,508
44816473,505
44826485,507
44836529,511
44846574,501
44856587,510
44866631,504
44876676,507
44886688,502
44896733,507
44906777,507
44916791,503
44926835,506
44936879,504
44946891,507
44956936,509
44966982,507
44976996,511
44987038,508
44997081,505
45007096,507
45017139,512
45027180,509
45037192,505
45047232,509
45057272,505
45067312,513
45077320,512
45087359,510
45097398,512
45107400,510
45117435,503
45127477,512
45137489,511
45147531,504
45157574,508
45167586,507
45177628,509
45187670,515
45197682,516
45207722,516
45217765,516
45227778,513
45237822,516
45247864,516
45257877,515
45267922,516
45277968,518
45287981,517
45298024,511
45308070,511
45318114,514
45328129,507
45338170,507
45348209,511
45358222,509
45368264,507
45378309,501
45388321,509
45398363,510
45408404,507
45418414,503
45428454,507
45438494,507
45448503,501
45458542,506
45468584,504
45478594,506
45488635,502
45498675,508
45508685,508
45518725,508
45528763,512
45538804,507
45548814,509
45558853,506
45568895,507
45578909,508
45588953,504
45598994,508
45609004,503
45619043,510
45629083,508
45639093,507
45649134,510
45659175,505
45669187,510
45679228,511
45689267,508
45699276,503
45709317,505
45719358,503
45729368,510
45739411,507
45749453,513
45759463,503
45769505,503
45779548,512
45789592,510
45799606,514
45809650,502
45819695,508
45829705,508
45839746,506
45849788,509
45859797,506
45869839,513
45879882,514
45889897,519
45899941,520
45909985,521
45919993,520
45930029,522
45940070,526
45950080,524
45960124,521
45970168,523
45980179,519
45990222,519
46000262,516
46010272,518
46020313,514
46030353,507
46040394,512
46050400,509
46060438,509
46070476,500
46080488,508
46090528,507
46100572,504
46110583,506
46120624,506
46130666,504
46140677,499
46150723,508
46160768,509
46170783,508
46180822,506
46190863,507
46200873,507
46210916,506
46220961,509
46230974,509
46241019,506
46251065,503
46261080,505
46271124,509
46281169,503
46291183,505
46301229,504
46311275,501
46321320,509
46331336,504
46341380,508
46351425,509
46361437,505
46371478,509
46381519,504
46391532,504
46401578,509
46411623,508
46421639,512
46431684,508
46441729,503
46451742,505
46461785,507
46471828,506
46481842,504
46491885,506
46501931,510
46511945,510
46521989,509
46532030,513
46542039,513
46552077,512
46562117,515
46572158,520
46582169,516
46592212,524
46602256,523
46612268,523
46622313,524
46632355,525
46642368,515
46652412,522
46662456,522
46672467,516
46682510,518
46692554,516
46702567,511
46712613,512
46722656,509
46732666,506
46742708,506
46752747,501
46762759,503
46772804,507
46782848,503
46792890,505
46802899,503
46812935,501
46822975,507
46832986,501
46843029,501
46853071,504
46863085,507
46873128,508
46883171,506
46893184,509
46903226,511
46913265,503
46923274,512
46933315,507
46943357,506
46953371,505
46963413,506
46973455,500
46983466,505
46993506,509
47003547,508
47013559,501
47023600,511
47033643,508
47043686,500
47053695,507
47063736,503
47073779,501
47083790,508
47093829,503
47103872,507
47113881,506
47123922,508
47133966,505
47143974,507
47154016,505
47164057,507
47174071,507
47184110,504
47194151,507
47204163,510
47214204,512
47224243,519
47234253,519
47244292,518
47254330,522
47264340,524
47274383,524
47284425,521
47294463,524
47304468,523
47314508,520
47324549,517
47334558,514
47344596,515
47354638,514
47364651,513
47374692,509
47384732,508
47394741,508
47404779,510
47414818,508
47424827,500
47434867,505
47444906,509
47454915,505
47464957,509
47474998,505
47485009,508
47495052,506
47505095,506
47515106,510
47525150,502
47535192,506
47545205,509
47555245,503
47565288,511
47575331,508
47585348,510
47595396,502
47605439,510
47615451,510
47625497,504
47635542,504
47645557,507
47655600,506
47665644,504
47675657,505
47685700,503
47695739,501
47705752,503
47715796,505
47725838,507
47735849,502
47745888,507
47755930,505
47765939,507
47775981,511
47786022,504
47796062,502
47806072,508
47816109,508
47826143,510
47836151,513
47846190,513
47856228,511
47866233,515
47876269,511
47886308,522
47896314,517
47906351,523
47916386,526
47926391,526
47936424,523
47946459,525
47956465,524
47966502,519
47976539,522
47986543,520
47996575,518
48006608,518
48016613,516
48026651,514
48036688,509
48046695,511
48056732,508
48066770,503
48076806,502
48086814,505
48096851,503
48106889,506
48116898,506
48126938,506
48136981,498
48146991,504
48157032,501
48167076,509
48177085,509
48187123,506
48197163,510
48207172,511
48217214,510
48227252,506
48237260,509
48247299,512
48257340,502
48267347,508
48277383,502
48287417,508
48297456,507
48307464,507
48317503,507
48327541,505
48337549,507
48347590,507
48357631,501
48367642,503
48377682,507
48387722,509
48397732,506
48407773,505
48417813,502
48427822,508
48437860,504
48447899,508
48457909,510
48467950,504
48477991,504
48488002,503
48498045,510
48508081,509
48518091,512
48528130,509
48538171,507
48548211,514
48558220,515
48568259,518
48578300,522
48588310,518
48598346,521
48608386,526
48618398,521
48628441,527
48638484,524
48648494,523
48658534,520
48668577,518
48678586,520
48688626,518
48698668,512
48708679,508
48718720,504
48728761,511
48738771,506
48748805,503
48758844,504
48768852,498
48778889,503
48788926,504
48798934,505
48808971,506
48819013,505
48829055,505
48839062,502
48849099,499
48859137,502
48869146,504
48879183,508
48889224,500
48899234,503
48909273,508
48919312,508
48929320,503
48939355,508
48949395,502
48959400,511
48969440,507
48979480,506
48989486,510
48999523,506
49009563,506
49019571,507
49029609,508
49039647,502
49049655,507
49059694,509
49069732,508
49079770,501
49089777,506
49099816,508
49109856,510
49119863,508
49129902,505
49139939,510
49149947,511
49159989,509
49170030,509
49180041,508
49190082,504
49200124,505
49210135,504
49220179,511
49230221,511
49240230,505
49250271,504
49260313,513
49270325,513
49280365,518
49290403,516
49300410,517
49310447,524
49320484,522
49330522,523
49340532,522
49350571,519
49360612,521
49370620,524
49380658,520
49390700,516
49400709,516
49410748,511
49420782,513
49430788,505
49440820,507
49450850,509
49460852,509
49470888,505
49480928,503
49490937,506
49500975,506
49511012,504
49521021,505
49531061,509
49541098,506
49551136,503
49561143,502
49571181,508
49581219,506
49591224,504
49601258,503
49611295,510
49621300,509
49631336,501
49641373,510
49651376,508
49661412,507
49671450,504
49681457,508
49691496,505
49701536,505
49711545,512
49721583,508
49731617,508
49741623,505
49751662,505
49761702,508
49771710,501
49781748,510
49791788,503
49801826,510
49811835,507
49821878,506
49831918,505
49841929,503
49851970,505
49862009,508
49872015,509
49882052,506
49892086,509
49902093,510
49912131,507
49922166,503
49932173,508
49942212,504
49952251,505
49962258,505
49972294,511
49982327,513
49992335,514
50002372,514
50012410,519
50022417,514
50032456,518
50042496,519
50052536,516
50062545,522
50072589,522
50082633,518
50092647,520
50102690,516
50112731,519
50122741,517
50132781,517
50142824,509
50152835,516
50162877,511
50172911,504
50182922,503
50192968,509
50203012,507
50213026,510
50223071,500
50233118,502
50243135,507
50253185,503
50263231,506
50273249,506
50283296,509
50293346,506
50303389,505
50313402,505
50323446,509
50333488,506
50343499,507
50353540,512
50363580,506
50373590,508
50383630,502
50393672,507
50403684,506
50413725,502
50423765,510
50433772,505
50443810,511
50453849,509
50463858,506
50473897,506
50483934,508
50493943,506
50503983,502
50514025,501
50524037,506
50534081,509
50544123,508
50554162,507
50564171,505
50574210,508
50584249,504
50594257,502
50604296,510
50614333,503
50624337,503
50634376,508
50644413,504
50654421,501
50664460,507
50674502,506
50684511,510
50694550,510
50704590,511
50714599,510
50724644,506
50734683,509
50744693,510
50754735,512
50764775,514
50774784,513
50784823,520
50794859,516
50804896,515
50814905,521
50824943,521
50834981,521
50844988,514
50855025,518
50865062,515
50875068,518
50885104,512
50895141,516
50905149,510
50915187,512
50925226,510
50935228,510
50945268,509
50955307,506
50965317,509
50975356,505
50985395,503
50995402,500
51005437,507
51015473,506
51025482,504
51035524,509
51045564,503
51055603,503
51065609,505
51075644,507
51085682,504
51095694,510
51105736,504
51115779,508
51125792,506
51135830,506
51145871,510
51155881,504
51165919,506
51175963,503
51185974,504
51196015,509
51206055,506
51216066,509
51226106,506
51236147,505
51246157,506
51256195,505
51266234,508
51276240,501
51286277,507
51296313,510
51306348,511
51316355,508
51326393,510
51336431,509
51346442,508
51356480,509
51366519,505
51376525,504
51386564,502
51396602,509
51406608,508
51416645,502
51426679,508
51436683,502
51446713,506
51456745,511
51466750,506
51476789,506
51486823,510
51496830,504
51506866,508
51516905,511
51526913,514
51536951,516
51546989,517
51556999,515
51567037,515
51577075,514
51587113,516
51597122,519
51607162,515
51617203,512
51627213,513
51637254,514
51647298,509
51657307,504
51667346,510
51677387,508
51687399,508
51697442,504
51707486,506
51717495,509
51727538,504
51737581,502
51747595,500
51757640,500
51767683,507
51777699,503
51787752,508
51797804,507
51807856,504
51817874,510
51827922,505
51837973,507
51847990,503
51858030,501
51868073,504
51878086,507
51888124,507
51898167,505
51908181,508
51918223,505
51928263,501
51938269,511
51948308,509
51958347,509
51968356,509
51978397,510
51988441,509
51998456,507
52008498,508
52018539,505
52028552,503
52038596,508
52048641,508
52058652,509
52068695,509
52078738,505
52088781,503
52098793,503
52108834,508
52118872,509
52128881,507
52138922,511
52148961,508
52158972,510
52169009,510
52179050,509
52189058,511
52199093,507
52209127,510
52219131,508
52229170,507
52239206,508
52249213,510
52259249,509
52269283,504
52279295,510
52289339,510
52299379,508
52309388,508
52319429,511
52329467,505
52339505,506
52349511,510
52359546,513
52369583,511
52379587,512
52389624,507
52399662,514
52409671,515
52419712,504
52429747,506
52439751,508
52449793,506
52459835,507
52469846,507
52479890,508
52489931,511
52499939,508
52509979,510
52520019,511
52530029,509
52540067,503
52550108,508
52560118,510
52570156,509
52580198,510
52590240,509
52600250,512
52610287,508
52620329,510
52630340,503
52640380,506
52650420,512
52660432,510
52670470,508
52680509,504
52690518,508
52700555,508
52710587,501
52720595,507
52730633,507
52740672,501
52750680,502
52760719,510
52770758,510
52780766,507
52790802,508
52800841,510
52810849,502
52820885,510
52830919,512
52840954,507
52850959,509
52861000,505
52871050,511
52881069,509
52891109,504
52901148,509
52911157,505
52921195,505
52931231,509
52941237,511
52951275,511
52961315,505
52971324,503
52981367,511
52991410,511
53001416,512
53011455,503
53021497,507
53031508,509
53041550,509
53051593,511
53061639,509
53071655,510
53081700,513
53091745,517
53101755,518
53111798,518
53121844,513
53131858,511
53141904,517
53151950,510
53161961,511
53172003,514
53182047,515
53192059,512
53202097,507
53212134,509
53222142,502
53232182,507
53242222,505
53252231,508
53262271,505
53272314,508
53282329,509
53292371,505
53302414,503
53312456,507
53322464,510
53332504,505
53342542,505
53352555,510
53362597,508
53372638,512
53382647,508
53392685,511
53402723,503
53412730,508
53422770,508
53432810,508
53442821,512
53452862,508
53462902,512
53472912,508
53482951,510
53492993,508
53503006,505
53513045,508
53523084,504
53533090,509
53543129,504
53553169,509
53563208,509
53573217,511
53583255,507
53593293,508
53603298,508
53613336,509
53623374,511
53633381,510
53643414,510
53653451,506
53663459,510
53673498,512
53683535,510
53693541,505
53703575,509
53713611,510
53723617,508
53733657,509
53743695,509
53753702,510
53763747,503
53773791,508
53783802,510
53793842,504
53803878,511
53813883,515
53823921,517
53833961,512
53844002,516
53854011,512
53864051,516
53874090,510
53884102,518
53894144,515
53904185,512
53914196,512
53924235,508
53934275,510
53944283,511
53954325,505
53964365,507
53974374,509
53984412,502
53994451,509
54004462,510
54014503,510
54024544,510
54034555,503
54044594,504
54054632,504
54064674,504
54074685,503
54084726,507
54094765,511
54104774,509
54114812,505
54124849,507
54134855,507
54144890,511
54154919,508
54164919,511
54174954,510
54184990,501
54194995,506
54205031,506
54215065,508
54225072,507
54235113,502
54245157,507
54255170,503
54265213,506
54275257,512
54285269,510
54295310,508
54305343,505
54315380,510
54325387,506
54335419,508
54345456,512
54355463,508
54365499,508
54375533,507
54385536,511
54395572,504
54405606,507
54415611,506
54425645,511
54435684,507
54445689,510
54455722,512
54465757,505
54475765,503
54485804,510
54495842,506
54505846,511
54515882,506
54525917,511
54535923,511
54545957,511
54555995,509
54565998,513
54576033,508
54586066,511
54596101,512
54606103,508
54616137,514
54626173,508
54636179,505
54646211,505
54656245,509
54666251,510
54676285,506
54686321,510
54696330,511
54706369,503
54716408,506
54726416,505
54736455,504
54746493,507
54756499,510
54766537,510
54776574,506
54786582,505
54796618,511
54806653,511
54816656,510
54826688,510
54836716,510
54846745,510
54856747,511
54866779,508
54876810,504
54886806,510
54896837,507
54906869,513
54916870,511
54926903,506
54936935,506
54946935,508
54956967,510
54966997,510
54977001,512
54987034,504
54997065,506
55007063,509
55017089,505
55027116,511
55037114,509
55047144,502
55057173,503
55067203,508
55077201,505
55087232,508
55097261,505
55107259,508
55117292,511
55127325,513
55137325,509
55147356,506
55157390,505
55167392,506
55177425,510
55187456,508
55197457,508
55207488,512
55217520,506
55227522,505
55237551,510
55247576,513
55257576,509
55267609,515
55277643,514
55287646,513
55297681,511
55307714,510
55317716,512
55327750,513
55337784,509
55347816,511
55357817,506
55367848,508
55377882,510
55387886,503
55397923,511
55407958,510
55417961,503
55427994,507
55438027,505
55448033,507
55458070,506
55468106,502
55478113,502
55488149,510
55498189,512
55508193,509
55518234,509
55528274,510
55538280,509
55548317,503
55558354,510
55568361,511
55578396,512
55588431,512
55598466,511
55608472,509
55618511,508
55628550,510
55638558,511
55648600,506
55658640,511
55668648,506
55678682,511
55688718,511
55698723,507
55708759,503
55718791,511
55728799,507
55738836,510
55748872,507
55758877,510
55768913,509
55778947,509
55788954,511
55798989,509
55809023,508
55819060,511
55829066,507
55839100,509
55849136,510
55859140,511
55869171,502
55879205,506
55889202,503
55899234,508
55909264,511
55919265,507
55929301,508
55939333,509
55949329,510
55959359,508
55969390,503
55979390,509
55989422,512
55999455,511
56009462,508
56019494,514
56029530,515
56039536,509
56049573,511
56059605,508
56069638,506
56079641,505
56089675,514
56099710,512
56109717,510
56119755,511
56129788,512
56139795,508
56149832,510
56159868,509
56169872,507
56179903,506
56189932,506
56199932,511
56209963,501
56219997,505
56230000,508
56240033,508
56250068,506
56260073,504
56270107,506
56280141,504
56290144,511
56300177,509
56310211,509
56320243,511
56330245,509
56340279,513
56350309,511
56360311,509
56370348,509
56380382,511
56390387,510
56400423,504
56410461,506
56420468,512
56430503,510
56440538,511
56450541,505
56460575,507
56470608,508
56480613,512
56490647,510
56500685,508
56510688,510
56520721,507
56530755,504
56540762,507
56550796,510
56560830,506
56570866,507
56580871,510
56590904,512
56600939,506
56610940,502
56620973,510
56631005,507
56641012,507
56651045,512
56661079,508
56671083,506
56681120,505
56691154,508
56701154,511
56711188,503
56721225,508
56731231,512
56741267,512
56751303,513
56761309,509
56771342,514
56781375,516
56791380,512
56801416,512
56811451,508
56821454,507
56831490,510
56841526,509
56851562,509
56861569,504
56871606,507
56881641,512
56891645,508
56901680,509
56911717,510
56921723,507
56931756,508
56941789,505
56951794,506
56961828,506
56971866,509
56981873,507
56991911,512
57001947,510
57011954,503
57021987,510
57032018,507
57042023,503
57052061,508
57062098,510
57072104,506
57082144,506
57092185,511
57102219,509
57112221,515
57122253,504
57132285,508
57142286,512
57152323,512
57162358,503
57172364,507
57182402,508
57192441,507
57202445,510
57212481,507
57222516,510
57232521,508
57242556,512
57252592,505
57262596,512
57272631,507
57282663,511
57292665,509
57302699,510
57312734,511
57322739,505
57332773,504
57342809,506
57352847,509
57362853,512
57372892,507
57382933,513
57392943,513
57402982,508
57413024,514
57423032,514
57433073,514
57443112,514
57453120,514
57463159,514
57473198,509
57483206,509
57493241,513
57503277,512
57513282,511
57523322,509
57533356,508
57543366,508
57553408,509
57563453,506
57573467,507
57583512,508
57593558,511
57603603,510
57613619,508
57623663,509
57633708,509
57643718,510
57653761,510
57663803,504
57673811,502
57683849,506
57693891,506
57703901,510
57713940,510
57723982,505
57733990,511
57744027,512
57754063,504
57764068,505
57774105,508
57784143,511
57794149,505
57804189,510
57814229,506
57824270,508
57834280,510
57844319,512
57854356,512
57864367,504
57874407,513
57884442,508
57894446,504
57904480,507
57914511,508
57924516,512
57934552,506
57944590,507
57954598,509
57964641,510
57974682,504
57984695,504
57994737,508
58004779,510
58014790,509
58024829,512
58034866,508
58044874,512
58054911,511
58064947,511
58074954,514
58084993,511
58095030,513
58105067,517
58115074,515
58125114,512
58135155,518
58145168,511
58155209,509
58165252,515
58175258,515
58185297,509
58195337,503
58205344,512
58215382,506
58225422,507
58235431,508
58245472,503
58255511,505
58265524,508
58275569,506
58285607,508
58295619,506
58305664,508
58315705,511
58325749,509
58335762,509
58345805,505
58355846,507
58365854,502
58375897,506
58385942,503
58395955,505
58406002,504
58416044,506
58426057,510
58436100,512
58446142,510
58456158,508
58466200,512
58476242,504
58486255,503
58496299,508
58506344,509
58516357,505
58526401,508
58536443,510
58546457,510
58556499,512
58566538,510
58576583,510
58586596,507
58596636,506
58606674,511
58616680,504
58626715,503
58636757,509
58646768,502
58656809,510
58666852,509
58676867,510
58686912,510
58696956,512
58706970,506
58717012,512
58727054,511
58737065,512
58747108,512
58757151,513
58767163,512
58777206,510
58787247,516
58797257,515
58807299,519
58817341,519
58827353,515
58837399,515
58847446,518
58857488,512
58867502,514
58877546,514
58887588,508
58897599,512
58907642,503
58917682,504
58927692,508
58937731,512
58947774,511
58957784,503
58967827,509
58977870,509
58987883,506
58997923,501
59007964,504
59017973,512
59028018,509
59038064,504
59048072,510
59058110,512
59068151,508
59078193,508
59088201,512
59098243,511
59108282,512
59118292,506
59128331,512
59138371,508
59148376,511
59158416,504
59168458,508
59178467,503
59188505,506
59198543,505
59208554,505
59218595,508
59228639,508
59238650,503
59248692,510
59258729,508
59268737,509
59278777,510
59288818,508
59298826,505
59308865,505
59318905,508
59328945,511
59338954,508
59348995,508
59359038,502
59369050,505
59379091,507
59389131,504
59399143,507
59409183,504
59419222,507
59429230,511
59439267,509
59449303,509
59459310,507
59469351,510
59479390,511
59489396,511
59499435,507
59509474,515
59519480,513
59529519,515
59539560,517
59549571,515
59559610,514
59569649,509
59579687,512
59589696,510
59599738,509
59609782,505
59619794,511
59629836,512
59639874,513
59649883,508
59659920,509
59669960,510
59679971,510
59690009,511
59700048,508
59710055,509
59720092,509
59730132,510
59740139,512
59750175,508
59760212,506
59770219,504
59780256,507
59790295,509
59800304,512
59810341,512
59820378,505
59830417,509
59840424,507
59850464,508
59860505,507
59870513,511
59880550,510
59890591,511
59900599,510
59910638,512
59920678,510
59930687,506
59940728,509
59950768,506
59960776,505
59970815,506
59980854,508
59990864,511
60000904,510
60010945,506
60020956,506
60030994,503
60041031,507
60051038,509
60061080,513
60071120,504
60081129,504
60091170,511
60101212,503
60111253,508
60121264,510
60131303,503
60141345,505
60151355,509
60161395,509
60171436,508
60181447,510
60191487,511
60201526,510
60211535,515
60221575,512
60231616,514
60241627,516
60251669,514
60261710,510
60271721,510
60281765,515
60291808,516
60301820,515
60311860,508
60321899,509
60331906,511
60341945,513
60351986,504
60362030,510
60372044,512
60382091,505
60392135,510
60402150,506
60412195,508
60422243,508
60432255,508
60442300,507
60452342,509
60462353,511
60472394,506
60482438,502
60492452,509
60502493,511
60512536,510
60522547,504
60532587,509
60542626,510
60552635,503
60562676,506
60572719,509
60582730,507
60592776,511
60602823,512
60612868,507
60622881,510
60632924,508
60642969,510
60652979,506
60663024,509
60673070,509
60683079,504
60693121,509
60703162,512
60713175,509
60723218,509
60733263,510
60743279,510
60753323,511
60763366,512
60773378,509
60783422,508
60793462,504
60803472,511
60813516,511
60823559,504
60833603,510
60843615,506
60853661,508
60863704,506
60873715,503
60883757,509
60893798,512
60903810,508
60913853,510
60923896,511
60933909,513
60943954,516
60953998,514
60964012,517
60974057,510
60984101,516
60994116,519
61004159,515
61014202,516
61024215,508
61034260,511
61044305,511
61054319,512
61064362,510
61074404,508
61084416,503
61094459,506
61104501,503
61114542,503
61124552,505
61134599,511
61144645,511
61154661,510
61164706,507
61174750,505
61184765,511
61194809,505
61204856,508
61214867,510
61224912,509
61234954,505
61244964,503
61255009,509
61265055,508
61275069,503
61285114,505
61295156,506
61305169,510
61315213,510
61325253,508
61335266,510
61345311,512
61355358,505
61365402,509
61375416,505
61385456,507
61395494,505
61405502,502
61415543,508
61425586,511
61435602,510
61445646,505
61455689,506
61465701,505
61475742,510
61485786,504
61495799,510
61505841,507
61515878,511
61525883,510
61535923,508
61545965,513
61555975,509
61566018,506
61576059,508
61586102,507
61596114,507
61606156,513
61616197,504
61626207,512
61636246,512
61646286,506
61656295,505
61666334,510
61676372,517
61686379,511
61696415,514
61706452,514
61716461,514
61726501,514
61736540,515
61746546,515
61756584,514
61766626,515
61776636,515
61786676,510
61796716,507
61806725,507
61816764,506
61826803,509
61836844,501
61846854,505
61856894,501
61866935,506
61876948,509
61886989,511
61897032,506
61907043,505
61917084,503
61927125,504
61937137,510
61947177,510
61957216,508
61967225,509
61977264,505
61987305,502
61997312,511
62007351,512
62017390,508
62027399,505
62037439,510
62047478,507
62057487,508
62067527,502
62077568,505
62087611,508
62097622,509
62107662,504
62117702,502
62127710,511
62137751,503
62147792,509
62157806,509
62167847,512
62177887,511
62187896,509
62197939,504
62207979,506
62217991,503
62228032,509
62238070,505
62248076,508
62258113,506
62268151,504
62278157,511
62288196,510
62298237,509
62308245,511
62318287,502
62328330,512
62338368,505
62348377,510
62358416,511
62368454,505
62378461,506
62388501,513
62398540,511
62408547,510
62418590,512
62428630,514
62438639,512
62448678,514
62458722,515
62468734,513
62478777,509
62488818,515
62498829,514
62508869,514
62518909,511
62528921,511
62538963,513
62549004,512
62559013,512
62569051,512
62579093,511
62589133,511
62599142,508
62609182,508
62619225,508
62629240,510
62639283,508
62649328,509
62659342,509
62669385,508
62679429,512
62689439,508
62699482,504
62709525,508
62719538,510
62729581,510
62739620,504
62749626,505
62759665,509
62769706,506
62779716,509
62789755,507
62799794,507
62809801,507
62819838,502
62829877,506
62839917,508
62849927,506
62859965,509
62870005,507
62880013,512
62890055,507
62900092,509
62910100,506
62920140,511
62930176,509
62940181,507
62950219,510
62960258,508
62970265,508
62980301,509
62990339,509
63000347,504
63010390,504
63020431,508
63030442,512
63040481,512
63050521,512
63060536,514
63070579,511
63080616,510
63090655,512
63100667,509
63110711,509
63120754,515
63130764,519
63140806,519
63150852,518
63160864,519
63170908,521
63180950,519
63190963,521
63201007,518
63211050,511
63221064,516
63231107,516
63241153,512
63251165,512
63261207,513
63271250,511
63281263,509
63291307,509
63301350,511
63311360,508
63321403,508
63331449,507
63341492,509
63351506,508
63361556,505
63371603,509
63381613,509
63391656,508
63401697,507
63411710,503
63421755,512
63431799,509
63441809,510
63451847,507
63461888,511
63471901,507
63481944,506
63491986,503
63502000,506
63512045,510
63522088,508
63532102,512
63542145,503
63552190,512
63562206,510
63572255,507
63582302,509
63592352,504
63602370,505
63612417,510
63622463,509
63632476,510
63642521,510
63652573,509
63662593,510
63672642,511
63682689,504
63692705,510
63702746,510
63712785,510
63722794,504
63732836,501
63742879,508
63752892,511
63762938,504
63772978,510
63782985,508
63793027,505
63803071,507
63813084,508
63823127,512
63833171,514
63843214,516
63853226,515
63863265,521
63873306,520
63883315,515
63893358,521
63903400,523
63913409,521
63923445,515
63933485,514
63943496,515
63953536,515
63963573,515
63973579,516
63983617,516
63993657,511
64003668,506
64013712,504
64023753,507
64033767,511
64043808,503
64053850,511
64063861,506
64073902,510
64083944,505
64093957,506
64104001,505
64114046,511
64124089,509
64134103,511
64144149,509
64154192,504
64164203,507
64174242,510
64184280,510
64194293,510
64204336,512
64214379,510
64224389,508
64234429,503
64244469,511
64254481,501
64264523,512
64274565,508
64284575,507
64294616,508
64304653,510
64314660,506
64324699,507
64334737,510
64344749,510
64354787,501
64364825,504
64374862,512
64384871,511
64394907,504
64404941,507
64414945,504
64424983,506
64435021,509
64445027,511
64455063,508
64465100,508
64475106,510
64485147,506
64495188,511
64505199,508
64515235,504
64525273,502
64535281,511
64545322,508
64555361,509
64565369,509
64575410,514
64585449,511
64595490,503
64605502,506
64615545,514
64625587,516
64635596,517
64645640,517
64655678,522
64665682,518
64675717,522
64685755,520
64695768,521
64705809,518
64715852,516
64725863,518
64735902,510
64745941,507
64755949,510
64765983,512
64776020,512
64786026,501
64796064,507
64806099,507
64816107,507
64826146,508
64836181,499
64846186,504
64856221,501
64866255,503
64876293,505
64886299,505
64896339,508
64906378,506
64916384,504
64926423,507
64936462,512
64946468,504
64956507,505
64966545,507
64976552,501
64986589,507
64996624,508
65006628,508
65016667,508
65026706,501
65036714,504
65046748,506
65056784,506
65066787,506
65076820,507
65086857,509
65096893,503
65106892,511
65116927,510
65126966,510
65136971,506
65147006,509
65157040,505
65167048,511
65177086,508
65187121,510
65197128,503
65207169,506
65217209,507
65227217,506
65237255,509
65247294,507
65257301,509
65267342,511
65277383,503
65287391,505
65297431,507
65307471,509
65317476,508
65327512,502
65337549,510
65347555,510
65357593,509
65367629,511
65377665,511
65387672,508
65397711,512
65407750,510
65417757,502
65427795,512
65437831,509
65447837,512
65457874,517
65467905,512
65477910,514
65487947,512
65497984,517
65507989,518
65518025,520
65528059,515
65538063,518
65548098,510
65558139,514
65568148,514
65578188,514
65588224,505
65598265,512
65608278,508
65618322,505
65628363,508
65638373,509
65648413,507
65658450,506
65668456,506
65678493,509
65688531,504
65698538,505
65708578,508
65718617,506
65728627,502
65738667,509
65748705,503
65758710,510
65768745,506
65778780,504
65788788,505
65798821,506
65808855,511
65818859,510
65828896,510
65838934,507
65848972,510
65858982,503
65869022,509
65879063,506
65889078,507
65899120,502
65909162,507
65919170,505
65929209,506
65939249,507
65949255,508
65959293,509
65969330,510
65979336,504
65989375,506
65999412,508
66009422,511
66019462,506
66029501,511
66039513,503
66049554,511
66059593,510
66069602,508
66079639,511
66089678,511
66099719,511
66109727,510
66119770,509
66129812,508
66139824,510
66149865,502
66159905,512
66169915,510
66179954,506
66189993,503
66200003,507
66210042,508
66220082,506
66230091,512
66240128,516
66250164,519
66260169,512
66270205,516
66280238,519
66290240,518
66300277,518
66310315,517
66320326,511
66330369,516
66340410,512
66350448,513
66360456,512
66370494,510
66380531,513
66390534,511
66400569,507
66410605,507
66420608,504
66430643,508
66440678,503
66450681,509
66460717,505
66470756,510
66480765,511
66490805,507
66500843,506
66510850,509
66520891,504
66530927,511
66540930,509
66550964,510
66560998,508
66571008,508
66581050,504
66591088,503
66601097,512
66611135,512
66621175,505
66631217,511
66641231,502
66651276,504
66661320,504
66671333,507
66681376,507
66691420,506
66701435,509
66711476,510
66721518,503
66731529,501
66741569,505
66751608,506
66761622,507
66771664,506
66781707,511
66791720,502
66801762,505
66811801,508
66821810,510
66831851,506
66841890,503
66851901,505
66861941,510
66871984,505
66882028,511
66892047,509
66902094,512
66912141,509
66922159,512
66932208,503
66942258,510
66952271,508
66962315,510
66972357,507
66982365,508
66992404,512
67002445,510
67012457,511
67022499,507
67032540,509
67042551,513
67052594,514
67062635,517
67072646,516
67082690,517
67092734,515
67102776,518
67112785,514
67122828,515
67132871,511
67142883,513
67152928,513
67162970,512
67172982,513
67183022,503
67193063,506
67203078,510
67213122,503
67223165,504
67233177,505
67243220,507
67253263,506
67263274,503
67273315,510
67283355,507
67293367,507
67303409,505
67313450,508
67323464,507
67333510,506
67343556,505
67353603,508
67363615,509
67373658,510
67383703,508
67393716,512
67403757,507
67413800,503
67423810,511
67433852,503
67443896,512
67453909,512
67463948,506
67473988,511
67484002,510
67494044,508
67504086,508
67514099,509
67524141,512
67534183,503
67544194,508
67554236,508
67564279,510
67574290,512
67584331,511
67594376,508
67604420,508
67614433,512
67624477,507
67634521,503
67644535,511
67654575,512
67664615,507
67674624,508
67684663,512
67694701,511
67704708,508
67714748,505
67724787,507
67734800,504
67744843,507
67754887,512
67764903,510
67774954,511
67785001,510
67795014,510
67805059,506
67815105,508
67825115,512
67835154,511
67845197,512
67855211,515
67865256,514
67875299,510
67885342,515
67895355,515
67905398,508
67915440,514
67925451,506
67935489,513
67945531,507
67955545,512
67965592,502
67975632,510
67985643,505
67995683,507
68005723,506
68015733,506
68025774,510
68035817,511
68045828,510
68055871,503
68065910,508
68075921,509
68085963,507
68096002,512
68106012,510
68116051,510
68126090,510
68136129,504
68146131,504
68156164,512
68166201,505
68176205,511
68186243,508
68196282,509
68206289,507
68216325,508
68226359,507
68236364,506
68246398,506
68256435,512
68266439,509
68276476,506
68286509,511
68296513,506
68306549,506
68316586,508
68326596,507
68336632,502
68346668,507
68356704,505
68366710,508
68376749,508
68386788,511
68396798,504
68406834,506
68416873,509
68426879,508
68436913,507
68446946,511
68456949,510
68466985,505
68477020,502
68487027,507
68497064,512
68507102,507
68517109,510
68527147,512
68537185,510
68547190,506
68557223,506
68567260,503
68577264,504
68587300,507
68597336,504
68607373,506
68617377,510
68627412,505
68637446,506
68647453,508
68657489,512
68667525,511
68677533,509
68687570,509
68697606,510
68707610,512
68717645,506
68727676,504
68737679,509
68747716,513
68757753,510
68767760,502
68777799,506
68787836,503
68797842,504
68807880,504
68817916,507
68827922,510
68837958,513
68847993,511
68857998,508
68868034,511
68878066,510
68888094,503
68898092,505
68908125,505
68918159,508
68928160,508
68938191,509
68948226,507
68958234,510
68968272,511
68978311,507
68988318,508
68998359,510
69008398,506
69018405,505
69028442,503
69038482,507
69048490,507
69058526,512
69068560,509
69078567,512
69088600,509
69098636,509
69108640,509
69118675,510
69128715,511
69138753,505
69148760,507
69158800,511
69168837,512
69178843,508
69188878,511
69198914,510
69208918,509
69218953,508
69228990,508
69238998,503
69249036,508
69259070,510
69269073,504
69279111,512
69289150,510
69299157,503
69309192,509
69319227,512
69329233,510
69339268,512
69349303,512
69359309,505
69369346,514
69379384,514
69389423,512
69399430,506
69409466,512
69419501,506
69429504,510
69439539,508
69449576,512
69459584,505
69469619,509
69479655,509
69489662,508
69499700,511
69509741,509
69519748,507
69529785,510
69539819,510
69549819,508
69559852,504
69569889,504
69579896,509
69589937,507
69599973,511
69609977,510
69620012,510
69630055,509
69640098,503
69650109,511
69660150,508
69670190,503
69680202,505
69690236,512
69700269,512
69710275,510
69720311,512
69730349,506
69740354,502
69750394,505
69760434,512
69770442,508
69780480,509
69790520,507
69800528,504
69810566,510
69820606,508
69830616,510
69840656,511
69850692,504
69860698,504
69870733,510
69880771,504
69890810,508
69900821,503
69910856,510
69920890,510
69930900,510
69940936,512
69950976,512
69960987,511
69971028,510
69981068,510
69991075,511
70001115,510
70011153,507
70021165,507
70031210,514
70041256,513
70051271,516
70061316,510
70071355,516
70081360,516
70091393,513
70101429,513
70111467,514
70121472,513
70131509,514
70141546,512
70151551,509
70161587,513
70171623,510
70181633,512
70191675,506
70201716,508
70211723,510
70221759,508
70231794,511
70241798,509
70251835,510
70261872,508
70271879,509
70281920,503
70291958,511
70301967,502
70312007,510
70322047,510
70332060,511
70342102,510
70352143,506
70362183,509
70372193,512
70382234,513
70392275,507
70402286,507
70412322,512
70422359,509
70432370,511
70442412,509
70452452,512
70462460,506
70472493,510
70482530,509
70492535,510
70502573,511
70512611,510
70522618,510
70532655,510
70542695,503
70552700,510
70562734,510
70572772,509
70582781,506
70592820,502
70602858,510
70612863,505
70622901,503
70632943,512
70642983,513
70652993,510
70663030,504
70673071,509
70683081,506
70693121,507
70703159,504
70713169,510
70723212,509
70733254,514
70743264,514
70753310,516
70763356,516
70773371,515
70783416,508
70793460,514
70803470,512
70813509,508
70823552,513
70833565,509
70843609,511
70853649,509
70863691,512
70873703,509
70883746,510
70893789,508
70903802,507
70913847,510
70923891,507
70933905,504
70943946,510
70953990,510
70964001,510
70974045,506
70984088,506
70994102,510
71004144,507
71014189,509
71024202,510
71034245,503
71044287,510
71054298,509
71064342,511
71074384,505
71084398,510
71094442,509
71104489,509
71114503,505
71124546,507
71134591,505
71144635,512
71154646,508
71164691,502
71174732,512
71184741,513
71194781,510
71204820,510
71214822,503
71224856,509
71234889,505
71244895,508
71254933,507
71264968,507
71274974,511
71285011,512
71295051,512
71305060,502
71315101,502
71325142,511
71335152,511
71345192,510
71355233,504
71365272,504
71375280,513
71385318,508
71395356,511
71405364,507
71415405,513
71425447,514
71435455,517
71445492,517
71455529,518
71465536,518
71475575,517
71485612,518
71495618,515
71505655,516
71515690,518
71525698,517
71535737,515
71545770,515
71555777,518
71565818,511
71575858,511
71585863,514
71595899,512
71605940,516
71615983,508
71625993,511
71636031,511
71646069,511
71656075,507
71666113,508
71676151,509
71686157,504
71696194,511
71706231,512
71716237,506
71726273,508
71736308,504
71746313,511
71756349,508
71766387,503
71776399,511
71786438,509
71796474,511
71806482,508
71816521,508
71826555,507
71836562,508
71846603,505
71856644,510
71866682,508
71876692,502
71886738,508
71896779,509
71906790,509
71916831,504
71926875,511
71936886,511
71946927,505
71956967,511
71966977,508
71977016,503
71987051,508
71997055,507
72007092,504
72017126,502
72027129,509
72037167,504
72047206,511
72057218,507
72067258,512
72077302,510
72087312,503
72097356,505
72107400,510
72117444,506
72127457,507
72137500,512
72147544,510
72157559,510
72167604,512
72177651,509
72187668,517
72197714,514
72207761,519
72217775,521
72227817,522
72237859,521
72247869,515
72257911,519
72267955,518
72277970,513
72288012,507
72298052,514
72308062,515
72318100,513
72328138,512
72338144,513
72348181,506
72358219,513
72368256,503
72378263,507
72388302,509
72398343,508
72408352,510
72418390,504
72428428,502
72438438,510
72448480,505
72458518,511
72468524,508
72478563,512
72488600,511
72498605,505
72508642,513
72518681,511
72528688,505
72538727,512
72548765,507
72558770,509
72568800,511
72578834,506
72588840,508
72598879,511
72608916,508
72618925,500
72628963,510
72639000,508
72649034,508
72659040,505
72669076,501
72679112,500
72689121,506
72699161,508
72709203,508
72719213,502
72729256,507
72739292,508
72749300,504
72759337,505
72769372,509
72779375,507
72789411,510
72799447,504
72809453,510
72819487,508
72829521,506
72839523,511
72849559,508
72859595,510
72869604,505
72879641,507
72889679,514
72899719,516
72909726,513
72919760,512
72929798,517
72939807,522
72949847,526
72959885,526
72969891,521
72979926,526
72989958,519
72999963,518
73009998,519
73020032,520
73030038,516
73040075,516
73050110,518
73060116,515
73070154,511
73080191,511
73090196,506
73100233,510
73110268,510
73120270,508
73130301,508
73140334,510
73150362,508
73160358,508
73170389,506
73180420,512
73190421,508
73200455,514
73210488,508
73220491,502
73230530,508
73240568,507
73250576,510
73260617,512
73270657,505
73280663,510
73290699,509
73300734,506
73310740,507
73320778,501
73330815,503
73340822,507
73350857,511
73360894,509
73370931,508
73380937,508
73390973,502
73401008,511
73411013,506
73421051,510
73431089,504
73441095,504
73451131,505
73461169,508
73471174,504
73481209,503
73491248,503
73501256,509
73511292,511
73521330,502
73531339,510
73541376,503
73551411,504
73561416,509
73571449,511
73581481,508
73591487,506
73601518,505
73611552,509
73621591,507
73631596,507
73641634,511
73651671,505
73661677,512
73671714,516
73681750,510
73691756,519
73701793,523
73711829,522
73721835,524
73731870,525
73741907,526
73751912,523
73761948,526
73771988,519
73781994,516
73792029,518
73802066,520
73812075,519
73822109,512
73832146,518
73842153,514
73852186,515
73862223,511
73872227,504
73882264,503
73892301,508
73902337,509
73912344,510
73922382,509
73932422,509
73942429,510
73952466,508
73962505,506
73972516,508
73982553,503
73992593,509
74002602,510
74012640,508
74022676,509
74032683,508
74042718,504
74052754,511
74062759,510
74072796,508
74082831,504
74092835,507
74102866,501
74112898,506
74122937,509
74132942,509
74142977,502
74153015,502
74163022,503
74173060,500
74183100,509
74193104,509
74203140,509
74213176,508
74223182,509
74233218,508
74243254,509
74253259,509
74263296,507
74273336,508
74283343,506
74293380,507
74303416,509
74313421,506
74323456,506
74333493,506
74343498,509
74353534,506
74363573,510
74373610,506
74383617,507
74393655,504
74403695,508
74413701,501
74423739,509
74433774,510
74443777,510
74453808,508
74463841,501
74473846,503
74483884,504
74493923,505
74503926,507
74513964,508
74524001,513
74534009,517
74544047,514
74554086,517
74564096,511
74574134,518
74584175,520
74594182,523
74604219,512
74614256,518
74624263,514
74634301,516
74644337,518
74654376,510
74664383,516
74674422,511
74684462,513
74694470,510
74704511,512
74714549,510
74724555,510
74734595,509
74744632,508
74754638,510
74764675,509
74774710,510
74784714,504
74794750,506
74804787,508
74814793,504
74824825,504
74834857,510
74844861,505
74854894,509
74864929,512
74874963,510
74884966,508
74895002,504
74905036,505
74915040,507
74925075,504
74935109,507
74945116,506
74955153,509
74965192,508
74975203,510
74985241,505
74995278,502
75005284,508
75015316,504
75025349,504
75035353,507
75045387,506
75055421,507
75065422,509
75075459,509
75085497,513
75095500,510
75105536,502
75115574,511
75125613,508
75135622,511
75145661,507
75155698,509
75165704,505
75175740,507
75185777,509
75195787,507
75205828,509
75215871,505
75225881,508
75235914,507
75245950,510
75255955,509
75265991,512
75276028,512
75286035,507
75296074,501
75306114,508
75316125,505
75326166,503
75336207,511
75346215,503
75356255,510
75366296,508
75376334,513
75386343,511
75396381,509
75406416,512
75416422,510
75426463,511
75436504,516
75446509,517
75456550,517
75466591,512
75476602,511
75486643,514
75496684,513
75506691,511
75516724,508
75526763,514
75536770,513
75546811,509
75556848,508
75566856,507
75576896,497
75586936,503
75596942,507
75606978,506
75617012,505
75627047,504
75637050,502
75647085,509
75657120,505
75667124,510
75677163,505
75687202,506
75697211,505
75707248,509
75717287,502
75727298,511
75737337,509
75747374,503
75757381,506
75767423,512
75777465,511
75787477,507
75797518,510
75807559,503
75817569,506
75827610,509
75837647,510
75847653,508
75857690,509
75867729,512
75877735,510
75887774,512
75897809,505
75907841,508
75917846,511
75927877,504
75937911,510
75947915,512
75957951,512
75967987,509
75977991,507
75988028,506
75998065,513
76008076,509
76018118,512
76028157,508
76038166,511
76048204,508
76058241,503
76068248,505
76078287,506
76088326,504
76098332,511
76108373,507
76118412,511
76128421,503
76138460,506
76148496,509
76158532,509
76168539,505
76178577,509
76188618,508
76198625,510
76208662,514
76218700,512
76228709,504
76238746,512
76248784,512
76258792,508
76268832,512
76278870,513
76288874,513
76298908,513
76308943,510
76318950,512
76328989,505
76339025,511
76349034,508
76359070,513
76369104,512
76379107,512
76389141,512
76399178,508
76409216,511
76419224,503
76429260,509
76439299,509
76449304,507
76459339,502
76469373,509
76479376,507
76489412,511
76499448,509
76509454,507
76519490,512
76529526,511
76539533,507
76549568,510
76559604,511
76569611,512
76579650,505
76589688,508
76599696,510
76609733,513
76619771,513
76629804,503
76639807,507
76649838,503
76659873,505
76669880,505
76679915,512
76689950,506
76699955,509
76709991,505
76720028,510
76730030,512
76740065,512
76750102,513
76760111,512
76770149,511
76780182,509
76790191,510
76800228,512
76810268,510
76820279,506
76830321,505
76840360,504
76850369,508
76860408,509
76870449,511
76880487,508
76890493,506
76900530,512
76910568,507
76920572,512
76930609,508
76940647,508
76950655,512
76960693,509
76970731,511
76980735,511
76990771,510
77000807,511
77010812,508
77020851,506
77030890,503
77040897,511
77050937,508
77060977,509
77070984,509
77081022,508
77091061,511
77101066,510
77111098,511
77121133,511
77131168,510
77141174,504
77151209,502
77161244,508
77171251,503
77181288,506
77191323,510
77201329,510
77211364,510
77221397,506
77231402,505
77241441,510
77251475,513
77261480,504
77271516,511
77281551,510
77291556,511
77301589,512
77311622,508
77321629,509
77331667,512
77341704,506
77351711,510
77361746,504
77371782,508
77381821,507
77391829,510
77401866,509
77411904,509
77421907,508
77431940,503
77441977,503
77451981,503
77462017,505
77472054,504
77482059,511
77492096,510
77502133,510
77512137,513
77522178,504
77532219,511
77542227,509
77552262,512
77562295,509
77572300,511
77582335,508
77592372,509
77602379,512
77612419,504
77622458,514
77632463,505
77642497,504
77652536,512
77662575,506
77672582,509
77682618,511
77692656,512
77702663,509
77712699,509
77722738,508
77732746,503
77742783,503
77752820,511
77762826,512
77772864,511
77782903,511
77792911,505
77802949,513
77812987,508
77822994,510
77833034,511
77843072,511
77853080,510
77863117,510
77873158,504
77883197,511
77893206,510
77903245,512
77913284,505
77923293,512
77933334,508
77943375,512
77953387,510
77963430,505
77973472,510
77983485,509
77993526,506
78003568,508
78013579,505
78023621,506
78033662,508
78043674,511
78053713,505
78063753,506
78073761,507
78083798,510
78093837,505
78103845,506
78113883,509
78123920,510
78133928,512
78143962,506
78154000,510
78164037,510
78174048,510
78184084,505
78194124,508
78204127,506
78214163,510
78224200,506
78234206,505
78244242,508
78254274,512
78264276,512
78274309,505
78284344,507
78294349,506
78304385,509
78314422,507
78324428,508
78334461,504
78344495,513
78354501,511
78364539,510
78374575,509
78384576,508
78394612,509
78404651,508
78414690,505
78424697,511
78434738,505
78444775,509
78454779,512
78464815,509
78474851,507
78484855,504
78494894,508
78504933,509
78514936,512
78524975,511
78535011,511
78545016,510
78555049,511
78565084,509
78575088,510
78585124,509
78595159,507
78605166,506
78615200,506
78625234,505
78635270,508
78645275,512
78655309,509
78665345,512
78675351,514
78685387,511
78695419,505
78705421,507
78715455,515
78725489,512
78735494,509
78745530,504
78755565,504
78765571,506
78775608,511
78785646,509
78795653,510
78805688,510
78815722,506
78825728,506
78835765,510
78845802,507
78855809,511
78865849,508
78875886,506
78885895,507
78895934,510
78905971,508
78916005,504
78926009,507
78936044,512
78946079,508
78956083,510
78966118,510
78976151,508
78986156,505
78996192,512
79006229,502
79016234,509
79026270,510
79036305,511
79046310,511
79056347,512
79066382,508
79076386,504
79086421,510
79096458,505
79106461,503
79116494,510
79126526,513
79136528,510
79146562,507
79156598,509
79166633,512
79176635,504
79186670,508
79196707,505
79206712,506
79216747,510
79226783,512
79236789,506
79246824,507
79256859,508
79266861,505
79276894,507
79286926,508
79296928,505
79306962,504
79316997,510
79327005,512
79337042,512
79347078,512
79357083,512
79367121,514
79377157,515
79387162,513
79397196,514
79407231,512
79417264,510
79427271,512
79437310,511
79447349,509
79457357,509
79467397,511
79477436,510
79487446,511
79497486,505
79507526,507
79517529,509
79527561,511
79537600,503
79547608,509
79557644,511
79567683,510
79577689,502
79587726,507
79597763,512
79607770,507
79617809,514
79627847,507
79637856,510
79647894,511
79657929,510
79667964,510
79677968,507
79688006,510
79698044,512
79708055,509
79718094,510
79728133,510
79738140,504
79748176,511
79758213,508
79768220,504
79778256,509
79788292,507
79798297,510
79808335,510
79818372,506
79828378,508
79838415,506
79848454,503
79858459,508
79868495,503
79878530,511
79888535,508
79898571,507
79908607,506
79918647,509
79928658,506
79938702,504
79948745,508
79958757,511
79968799,512
79978841,506
79988852,507
79998894,506
80008935,513
80018947,514
80028988,512
80039031,512
80049041,516
80059083,517
80069125,508
80079135,511
80089175,510
80099216,515
80109232,512
80119280,508
80129321,506
80139362,505
80149373,505
80159415,511
80169459,503
80179469,507
80189510,509
80199552,508
80209563,508
80219602,505
80229646,508
80239656,505
80249693,507
80259734,511
80269742,504
80279779,506
80289818,508
80299827,503
80309868,510
80319905,503
80329911,507
80339948,511
80349988,503
80359998,509
80370039,508
80380079,507
80390088,513
80400129,510
80410169,511
80420210,509
80430217,511
80440255,507
80450291,507
80460294,505
80470328,512
80480366,512
80490375,506
80500414,507
80510453,508
80520460,503
80530503,511
80540542,512
80550550,511
80560591,512
80570626,512
80580628,512
80590665,507
80600701,512
80610705,510
80620742,508
80630784,508
80640794,512
80650833,509
80660876,504
80670922,504
80680935,508
80690977,509
80701020,509
80711034,512
80721078,505
80731119,510
80741129,505
80751170,513
80761211,512
80771222,508
80781263,512
80791304,510
80801316,512
80811357,507
80821396,505
80831407,507
80841448,507
80851488,512
80861495,504
80871538,511
80881578,506
80891590,510
80901633,510
80911676,511
80921718,509
80931728,507
80941770,505
80951814,512
80961824,512
80971862,512
80981903,504
80991914,509
81001956,506
81011997,512
81022009,508
81032049,511
81042090,512
81052102,513
81062145,511
81072188,508
81082197,511
81092235,505
81102274,509
81112284,504
81122323,505
81132364,506
81142402,504
81152411,506
81162451,512
81172491,505
81182501,503
81192542,512
81202580,510
81212588,508
81222629,512
81232672,510
81242682,505
81252725,507
81262766,512
81272775,506
81282824,510
81292871,505
81302888,503
81312931,510
81322972,513
81332984,511
81343023,507
81353065,510
81363077,506
81373118,506
81383160,509
81393172,512
81403213,509
81413253,514
81423292,510
81433304,509
81443347,513
81453389,513
81463399,507
81473441,509
81483484,512
81493493,509
81503535,508
81513576,512
81523585,511
81533625,505
81543665,509
81553673,508
81563712,504
81573752,501
81583760,509
81593799,503
81603837,506
81613844,508
81623884,505
81633926,506
81643938,505
81653978,510
81664018,513
81674059,508
81684069,507
81694108,511
81704150,504
81714160,506
81724202,512
81734239,513
81744247,511
81754287,511
81764328,503
81774340,509
81784380,511
81794422,506
81804434,511
81814473,512
81824514,503
81834526,511
81844567,511
81854609,510
81864618,511
81874660,512
81884702,504
81894742,509
81904751,507
81914792,506
81924833,512
81934842,509
81944883,510
81954925,506
81964936,510
81974978,511
81985020,509
81995029,510
82005070,510
82015109,512
82025122,515
82035168,507
82045211,504
82055222,507
82065263,511
82075304,517
82085314,514
82095353,516
82105392,516
82115403,517
82125442,518
82135483,515
82145495,515
82155536,516
82165571,515
82175605,512
82185612,511
82195651,512
82205692,508
82215704,507
82225744,510
82235787,503
82245798,506
82255840,506
82265883,511
82275893,509
82285937,511
82295980,508
82305993,511
82316035,502
82326076,511
82336088,506
82346129,509
82356169,509
82366182,509
82376223,508
82386265,505
82396305,511
82406310,515
82416348,510
82426387,508
82436392,512
82446431,510
82456470,511
82466477,510
82476509,503
82486544,506
82496548,510
82506583,505
82516620,511
82526627,510
82536663,511
82546701,510
82556706,510
82566741,504
82576774,505
82586777,511
82596812,506
82606850,510
82616859,512
82626894,505
82636934,512
82646944,509
82656982,512
82667019,512
82677054,508
82687060,504
82697095,506
82707129,509
82717134,510
82727172,504
82737211,510
82747218,508
82757258,507
82767299,509
82777313,505
82787352,506
82797392,515
82807400,512
82817440,514
82827478,512
82837483,512
82847520,518
82857561,515
82867567,514
82877605,514
82887641,515
82897676,514
82907683,516
82917721,514
82927760,514
82937765,512
82947804,511
82957838,511
82967842,508
82977878,504
82987915,506
82997922,508
83007959,505
83017999,508
83028007,506
83038045,508
83048086,505
83058096,510
83068138,500
83078177,511
83088183,509
83098217,508
83108256,511
83118261,505
83128300,511
83138341,508
83148347,511
83158385,508
83168426,510
83178462,510
83188466,507
83198501,508
83208535,509
83218542,510
83228577,503
83238610,512
83248614,509
83258648,511
83268680,502
83278683,510
83288714,511
83298749,510
83308757,512
83318792,510
83328824,512
83338829,509
83348865,512
83358902,506
83368905,511
83378939,511
83388974,512
83399010,510
83409010,511
83419043,509
83429078,508
83439084,506
83449123,506
83459161,508
83469167,509
83479206,510
83489240,512
83499243,513
83509278,512
83519315,507
83529318,503
83539354,509
83549388,513
83559393,509
83569425,506
83579464,504
83589470,515
83599505,512
83609540,510
83619542,516
83629575,517
83639612,514
83649650,517
83659658,517
83669694,512
83679730,514
83689736,512
83699772,512
83709806,511
83719807,511
83729841,510
83739874,510
83749877,510
83759913,504
83769947,504
83779953,506
83789993,507
83800031,509
83810034,512
83820067,503
83830100,511
83840101,510
83850133,509
83860170,510
83870169,509
83880207,514
83890242,510
83900244,509
83910280,509
83920316,509
83930349,503
83940353,510
83950389,512
83960424,510
83970426,503
83980458,512
83990490,511
84000491,508
84010524,510
84020558,509
84030560,506
84040593,508
84050628,503
84060629,509
84070666,510
84080702,503
84090708,510
84100743,511
84110778,508
84120780,507
84130811,507
84140843,509
84150874,512
84160875,506
84170910,505
84180948,509
84190953,507
84200989,508
84211025,510
84221027,503
84231058,512
84241091,513
84251097,509
84261135,507
84271176,508
84281186,512
84291224,510
84301262,507
84311270,510
84321306,507
84331344,508
84341353,510
84351395,511
84361438,506
84371449,512
84381486,511
84391518,506
84401525,511
84411566,518
84421604,517
84431639,513
84441646,517
84451683,518
84461723,512
84471735,516
84481778,511
84491822,514
84501835,514
84511876,505
84521917,511
84531925,512
84541967,507
84552008,511
84562020,511
84572063,511
84582101,505
84592109,507
84602147,510
84612185,504
84622193,509
84632232,502
84642273,505
84652310,506
84662317,507
84672354,508
84682392,508
84692396,503
84702430,502
84712467,506
84722472,511
84732507,509
84742542,503
84752548,508
84762587,503
84772624,509
84782626,505
84792661,512
84802696,511
84812701,507
84822739,504
84832777,503
84842784,512
84852823,502
84862859,509
84872864,508
84882898,504
84892934,512
84902972,510
84912974,509
84923008,512
84933045,511
84943050,511
84953089,509
84963127,514
84973133,510
84983172,505
84993212,504
85003219,507
85013259,512
85023296,510
85033302,504
85043340,510
85053378,513
85063385,509
85073425,510
85083469,509
85093481,507
85103522,504
85113561,503
85123569,512
85133606,511
85143644,509
85153652,512
85163690,509
85173729,508
85183769,508
85193779,513
85203818,510
85213855,509
85223862,514
85233904,513
85243948,512
85253961,508
85264003,514
85274045,514
85284055,516
85294097,506
85304138,510
85314153,511
85324197,509
85334240,510
85344253,511
85354291,511
85364329,508
85374340,502
85384383,511
85394423,508
85404433,508
85414473,503
85424515,508
85434556,509
85444567,501
85454609,506
85464654,504
85474668,506
85484711,508
85494753,512
85504764,507
85514802,511
85524842,504
85534850,508
85544890,504
85554933,511
85564944,506
85574987,506
85585030,504
85595038,511
85605078,507
85615119,508
85625134,503
85635179,509
85645223,510
85655235,510
85665278,511
85675321,505
85685363,512
85695375,506
85705419,505
85715460,506
85725474,503
85735519,507
85745563,512
85755578,513
85765623,511
85775670,507
85785686,512
85795732,503
85805774,512
85815788,512
85825832,510
85835877,511
85845888,508
85855931,513
85865973,510
85875988,512
85886031,503
85896073,508
85906116,511
85916129,509
85926171,511
85936214,505
85946224,507
85956267,508
85966308,511
85976321,510
85986364,507
85996406,506
86006414,510
86016458,511
86026503,513
86036518,514
86046561,512
86056600,511
86066613,513
86076655,508
86086700,508
86096712,513
86106755,513
86116802,510
86126816,509
86136859,506
86146902,514
86156941,512
86166954,510
86176998,502
86187043,512
86197058,503
86207101,509
86217145,506
86227158,506
86237201,509
86247248,512
86257262,512
86267304,508
86277343,509
86287356,510
86297400,507
86307445,512
86317459,512
86327501,505
86337540,512
86347553,505
86357591,508
86367632,512
86377646,511
86387689,511
86397733,511
86407744,509
86417784,505
86427827,503
86437869,505
86447881,510
86457924,514
86467967,510
86477980,508
86488026,509
86498071,506
86508084,510
86518124,510
86528166,514
86538177,512
86548221,508
86558263,505
86568274,512
86578316,507
86588359,510
86598372,510
86608417,507
86618462,505
86628476,512
86638521,510
86648566,508
86658581,505
86668624,509
86678669,508
86688714,508
86698726,512
86708767,511
86718807,506
86728818,512
86738861,510
86748905,503
86758917,507
86768960,510
86779001,506
86789012,512
86799053,506
86809094,515
86819104,507
86829144,510
86839189,510
86849203,515
86859246,512
86869288,506
86879302,504
86889346,505
86899388,512
86909401,512
86919445,511
86929489,504
86939532,506
86949547,505
86959592,508
86969636,506
86979652,502
86989697,509
86999741,503
87009752,504
87019793,508
87029834,509
87039846,510
87049889,511
87059932,511
87069943,511
87079985,507
87090025,510
87100036,510
87110076,510
87120117,509
87130130,509
87140174,511
87150218,513
87160231,506
87170275,506
87180316,510
87190358,508
87200366,512
87210404,507
87220441,504
87230453,509
87240495,503
87250537,511
87260546,510
87270587,511
87280625,510
87290636,507
87300678,506
87310722,512
87320736,506
87330778,510
87340822,509
87350836,512
87360881,506
87370926,511
87380938,505
87390980,513
87401020,506
87411030,511
87421074,508
87431112,513
87441148,511
87451160,512
87461207,513
87471255,511
87481272,507
87491317,513
87501363,514
87511373,505
87521416,507
87531456,514
87541465,513
87551502,514
87561540,513
87571548,510
87581588,511
87591628,511
87601635,512
87611673,510
87621710,505
87631717,504
87641757,513
87651796,507
87661829,506
87671837,508
87681875,502
87691913,503
87701928,512
87711971,509
87722012,508
87732021,512
87742059,510
87752099,506
87762108,508
87772149,511
87782190,507
87792200,512
87802242,504
87812283,504
87822291,508
87832334,509
87842373,512
87852381,506
87862418,504
87872455,510
87882459,507
87892498,510
87902535,510
87912543,511
87922581,506
87932621,508
87942662,508
87952669,512
87962708,506
87972747,506
87982754,509
87992789,510
88002826,513
88012831,509
88022866,508
88032902,509
88042907,509
88052942,510
88062978,504
88072984,511
88083022,507
88093059,508
88103066,507
88113101,509
88123144,513
88133153,507
88143188,510
88153225,512
88163230,508
88173266,513
88183304,516
88193340,515
88203347,513
88213383,513
88223421,511
88233428,514
88243467,510
88253502,508
88263504,506
88273540,510
88283572,512
88293575,507
88303608,510
88313640,511
88323651,504
88333690,510
88343734,510
88353747,506
88363787,507
88373829,506
88383835,506
88393871,510
88403907,511
88413913,508
88423949,509
88433984,507
88444021,512
88454028,510
88464065,510
88474102,503
88484108,509
88494145,509
88504181,511
88514186,509
88524223,508
88534260,512
88544266,511
88554301,511
88564338,512
88574343,508
88584378,508
88594415,509
88604422,504
88614462,511
88624502,509
88634509,511
88644551,511
88654588,509
88664625,512
88674627,509
88684666,509
88694702,510
88704707,511
88714742,503
88724778,504
88734783,512
88744823,508
88754860,508
88764865,506
88774902,505
88784937,512
88794941,510
88804983,509
88815026,509
88825033,512
88835071,511
88845111,516
88855121,512
88865164,516
88875212,517
88885224,512
88895266,517
88905307,514
88915317,516
88925353,505
88935389,515
88945427,512
88955431,512
88965468,512
88975504,505
88985513,512
88995555,510
89005595,505
89015603,506
89025640,509
89035677,511
89045687,510
89055725,508
89065763,508
89075774,507
89085815,512
89095856,512
89105868,509
89115905,511
89125945,507
89135951,512
89145990,509
89156026,512
89166034,502
89176070,511
89186111,503
89196150,508
89206157,503
89216191,512
89226227,511
89236233,508
89246268,504
89256307,512
89266314,507
89276351,504
89286387,511
89296392,509
89306428,513
89316466,503
89326470,508
89336507,511
89346544,512
89356551,511
89366589,512
89376625,510
89386630,506
89396666,511
89406703,506
89416710,512
89426749,512
89436788,512
89446825,506
89456834,509
89466872,512
89476909,513
89486919,514
89496958,516
89506994,513
89517000,513
89527039,515
89537079,519
89547090,513
89557131,519
89567170,512
89577180,509
89587218,516
89597257,513
89607266,508
89617304,511
89627344,514
89637352,510
89647394,507
89657434,504
89667477,508
89677489,507
89687528,509
89697568,507
89707582,508
89717624,508
89727664,504
89737674,510
89747717,508
89757758,511
89767768,510
89777806,513
89787844,513
89797852,513
89807894,507
89817932,505
89827936,512
89837974,507
89848010,512
89858012,511
89868050,503
89878089,510
89888100,507
89898140,508
89908181,507
89918189,512
89928229,512
89938268,502
89948309,510
89958321,507
89968364,508
89978406,510
89988417,509
89998458,511
90008501,508
90018513,513
90028551,513
90038592,508
90048598,506
90058633,508
90068671,510
90078681,509
90088721,506
90098763,507
90108771,508
90118808,507
90128842,509
90138845,508
90148881,506
90158922,508
90168931,512
90178972,512
90189015,509
90199056,508
90209068,507
90219106,510
90229143,512
90239148,512
90249184,515
90259224,514
90269233,509
90279273,512
90289309,514
90299312,516
90309347,517
90319384,510
90329390,515
90339430,512
90349468,513
90359476,509
90369512,511
90379548,509
90389552,513
90399589,507
90409625,509
90419632,507
90429669,510
90439706,504
90449737,508
90459741,507
90469774,505
90479807,512
90489814,509
90499851,508
90509888,508
90519894,508
90529929,508
90539966,508
90549973,508
90560005,511
90570039,507
90580046,506
90590083,511
90600122,508
90610128,511
90620169,506
90630211,510
90640222,504
90650265,511
90660308,511
90670320,510
90680360,509
90690400,504
90700437,509
90710443,511
90720482,512
90730522,503
90740531,512
90750571,504
90760609,506
90770612,505
90780646,510
90790681,507
90800686,511
90810724,508
90820758,508
90830764,509
90840801,509
90850836,512
90860847,511
90870886,510
90880926,503
90890937,510
90900979,512
90911016,509
90921051,505
90931061,507
90941101,513
90951141,513
90961151,508
90971188,512
90981228,512
90991233,508
91001273,512
91011309,513
91021319,516
91031359,510
91041399,519
91051409,516
91061448,513
91071488,514
91081498,516
91091539,507
91101579,511
91111589,512
91121628,513
91131669,512
91141680,512
91151719,511
91161759,510
91171800,504
91181809,506
91191845,503
91201884,506
91211893,510
91221935,510
91231974,505
91241980,512
91252019,511
91262059,506
91272070,508
91282111,510
91292152,505
91302161,504
91312200,512
91322240,503
91332250,505
91342289,503
91352330,506
91362343,510
91372386,512
91382427,512
91392437,504
91402478,509
91412515,509
91422555,509
91432564,508
91442602,508
91452640,503
91462645,508
91472685,508
91482725,511
91492734,505
91502773,503
91512810,505
91522816,511
91532857,510
91542895,504
91552903,511
91562941,510
91572981,506
91582991,503
91593032,509
91603073,512
91613082,503
91623121,513
91633158,512
91643165,512
91653200,511
91663238,502
91673275,508
91683282,506
91693318,506
91703354,507
91713363,510
91723401,508
91733439,509
91743446,512
91753484,510
91763523,512
91773531,513
91783569,518
91793606,514
91803609,520
91813643,516
91823681,512
91833687,512
91843724,518
91853762,517
91863771,516
91873810,516
91883850,513
91893856,511
91903892,512
91913926,514
91923932,513
91933968,509
91944002,509
91954038,508
91964043,511
91974079,510
91984116,507
91994121,503
92004155,510
92014189,511
92024198,509
92034235,502
92044268,510
92054272,505
92064310,507
92074346,511
92084353,507
92094387,513
92104420,512
92114427,510
92124466,508
92134504,506
92144513,512
92154549,503
92164587,506
92174627,510
92184637,509
92194674,508
92204712,512
92214720,510
92224754,503
92234791,504
92244801,511
92254841,509
92264880,510
92274889,512
92284927,509
92294964,507
92304969,510
92315006,509
92325043,510
92335051,510
92345086,509
92355125,507
92365134,507
92375171,504
92385210,509
92395217,509
92405253,511
92415292,511
92425330,508
92435334,508
92445372,510
92455409,510
92465417,507
92475455,508
92485496,512
92495505,505
92505543,509
92515579,512
92525584,509
92535622,504
92545659,509
92555668,505
92565708,511
92575748,512
92585758,512
92595800,518
92605838,514
92615849,513
92625886,517
92635927,518
92645936,511
92655979,515
92666019,516
92676057,511
92686065,517
92696101,514
92706142,509
92716151,505
92726189,511
92736230,505
92746239,511
92756279,508
92766319,511
92776329,509
92786372,508
92796411,504
92806417,505
92816453,510
92826493,510
92836500,500
92846535,501
92856572,509
92866579,503
92876614,505
92886647,510
92896653,512
92906692,504
92916725,503
92926762,511
92936768,511
92946806,511
92956846,502
92966852,505
92976890,504
92986929,505
92996938,508
93006975,506
93017008,502
93027015,508
93037049,510
93047085,509
93057092,511
93067132,508
93077171,503
93087177,507
93097211,505
93107249,511
93117255,511
93127295,508
93137335,508
93147342,506
93157378,507
93167415,507
93177422,510
93187462,510
93197501,506
93207540,507
93217546,511
93227583,506
93237622,510
93247629,508
93257665,506
93267703,508
93277711,512
93287749,506
93297785,511
93307792,511
93317829,512
93327867,508
93337876,510
93347914,510
93357951,511
93367958,510
93377993,510
93388026,512
93398028,505
93408056,513
93418089,511
93428123,514
93438130,516
93448167,511
93458205,515
93468213,511
93478249,508
93488285,517
93498289,514
93508323,515
93518358,513
93528363,513
93538401,507
93548439,514
93558447,508
93568485,514
93578525,509
93588534,509
93598575,511
93608619,505
93618629,509
93628667,504
93638703,504
93648707,509
93658743,501
93668779,508
93678816,503
93688825,508
93698866,509
93708905,509
93718914,508
93728954,511
93738995,509
93749007,508
93759047,503
93769081,512
93779087,508
93789124,508
93799163,510
93809168,508
93819207,504
93829247,506
93839257,505
93849297,506
93859337,504
93869345,510
93879383,506
93889423,503
93899433,510
93909472,505
93919511,507
93929546,504
93939552,507
93949591,503
93959633,510
93969642,511
93979684,508
93989724,505
93999735,507
94009773,512
94019805,512
94029808,511
94039848,506
94049889,509
94059898,511
94069938,512
94079982,508
94089994,510
94100038,506
94110082,510
94120094,512
94130134,505
94140176,509
94150189,512
94160233,505
94170279,511
94180323,510
94190335,508
94200378,512
94210422,506
94220432,506
94230474,508
94240517,512
94250529,513
94260571,514
94270612,512
94280621,509
94290661,511
94300700,515
94310711,514
94320752,514
94330794,512
94340805,514
94350846,514
94360884,510
94370894,503
94380934,508
94390976,508
94400984,510
94411025,506
94421062,506
94431100,508
94441110,506
94451148,507
94461186,508
94471196,509
94481236,508
94491276,511
94501286,502
94511322,506
94521356,513
94531364,511
94541402,511
94551440,512
94561450,508
94571492,509
94581536,508
94591549,512
94601598,512
94611636,511
94621644,506
94631683,505
94641724,509
94651732,503
94661770,511
94671804,506
94681844,508
94691857,509
94701900,504
94711942,512
94721952,510
94731994,507
94742037,511
94752045,510
94762087,508
94772129,509
94782140,511
94792180,511
94802220,505
94812230,503
94822270,509
94832309,513
94842320,509
94852362,511
94862407,510
94872416,504
94882457,512
94892496,508
94902511,512
94912555,507
94922596,512
94932637,512
94942646,507
94952687,510
94962727,507
94972736,509
94982776,505
94992815,512
95002824,512
95012866,510
95022911,508
95032924,511
95042966,511
95053008,515
95063019,514
95073059,518
95083099,512
95093110,514
95103151,511
95113193,510
95123206,512
95133248,509
95143288,512
95153296,510
95163335,512
95173375,509
95183415,510
95193426,507
95203468,510
95213511,508
95223524,507
95233568,509
95243609,509
95253620,509
95263661,511
95273699,505
95283707,512
95293748,512
95303787,508
95313790,512
95323830,512
95333869,504
95343876,507
95353915,510
95363956,511
95373966,512
95384008,510
95394050,506
95404062,503
95414104,510
95424150,510
95434193,506
95444204,512
95454243,506
95464285,506
95474298,502
95484339,507
95494377,509
95504389,510
95514430,510
95524472,512
95534482,512
95544524,510
95554565,508
95564574,509
95574617,511
95584658,511
95594669,508
95604711,508
95614755,504
95624766,511
95634807,506
95644848,510
95654859,503
95664903,511
95674950,510
95684996,512
95695013,504
95705057,513
95715097,507
95725112,509
95735157,509
95745201,508
95755214,509
95765255,504
95775296,508
95785305,511
95795346,512
95805388,513
95815398,510
95825440,518
95835481,516
95845490,512
95855531,519
95865572,516
95875580,518
95885620,510
95895662,517
95905674,514
95915715,513
95925757,515
95935769,507
95945808,511
95955845,512
95965888,512
95975895,511
95985936,510
95995976,506
96005983,510
96016020,513
96026060,507
96036067,510
96046103,511
96056138,511
96066151,505
96076196,511
96086243,507
96096256,510
96106301,510
96116345,511
96126362,509
96136401,511
96146440,510
96156449,509
96166488,507
96176527,507
96186536,507
96196576,510
96206617,506
96216660,505
96226671,505
96236709,505
96246748,503
96256760,506
96266801,511
96276844,507
96286855,509
96296894,505
96306931,503
96316940,511
96326978,507
96337017,505
96347027,510
96357067,511
96367105,510
96377110,502
96387147,509
96397183,503
96407189,508
96417225,505
96427260,511
96437296,507
96447300,505
96457337,511
96467375,510
96477382,508
96487420,508
96497458,505
96507465,512
96517502,513
96527540,511
96537549,507
96547590,509
96557630,512
96567639,509
96577678,514
96587716,515
96597723,514
96607762,516
96617803,512
96627811,519
96637848,518
96647886,514
96657893,513
96667929,508
96677968,508
96687974,509
96698012,512
96708050,509
96718086,512
96728091,513
96738128,510
96748162,508
96758162,508
96768196,510
96778229,511
96788234,506
96798269,509
96808307,504
96818312,506
96828349,504
96838385,506
96848392,507
96858431,511
96868469,512
96878476,508
96888515,508
96898554,504
96908560,503
96918599,507
96928637,512
96938676,507
96948682,509
96958720,507
96968760,512
96978770,502
96988809,507
96998849,509
97008856,504
97018898,506
97028942,511
97038954,512
97048996,510
97059040,510
97069054,507
97079096,507
97089137,505
97099149,502
97109192,513
97119234,504
97129244,511
97139286,511
97149327,511
97159337,506
97169379,510
97179421,511
97189432,512
97199472,510
97209511,503
97219550,507
97229564,504
97239611,509
97249657,505
97259671,506
97269717,510
97279761,510
97289774,511
97299815,508
97309857,513
97319870,510
97329912,504
97339951,506
97349959,509
97360001,511
97370044,511
97380057,517
97390104,514
97400152,515
97410166,516
97420210,513
97430256,515
97440273,514
97450319,511
97460365,518
97470412,517
97480429,513
97490475,513
97500523,512
97510539,512
97520585,511
97530631,507
97540643,506
97550684,504
97560729,509
97570742,508
97580784,508
97590827,505
97600842,511
97610887,510
97620932,512
97630946,509
97640992,502
97651038,502
97661050,505
97671093,506
97681136,510
97691147,508
97701190,505
97711233,507
97721275,508
97731287,506
97741329,509
97751369,510
97761388,512
97771434,508
97781480,510
97791489,503
97801531,512
97811572,511
97821582,508
97831622,508
97841663,503
97851671,509
97861711,507
97871757,507
97881773,506
97891817,510
97901864,509
97911878,508
97921922,509
97931967,496
97942016,508
97952032,510
97962076,511
97972117,512
97982130,508
97992170,508
98002214,503
98012229,512
98022277,512
98032322,511
98042332,505
98052371,508
98062411,510
98072418,510
98082462,509
98092503,505
98102513,507
98112556,508
98122600,510
98132614,511
98142657,509
98152700,511
98162712,507
98172760,512
98182813,508
98192837,511
98202885,513
98212929,515
98222970,509
98232981,509
98243021,511
98253063,514
98263076,514
98273118,507
98283162,506
98293176,509
98303221,512
98313260,510
98323268,511
98333309,507
98343351,511
98353365,508
98363404,503
98373440,506
98383446,504
98393486,507
98403523,507
98413535,502
98423577,508
98433620,509
98443634,505
98453678,510
98463723,509
98473765,505
98483778,512
98493820,511
98503862,510
98513875,512
98523917,511
98533961,507
98543972,509
98554016,509
98564059,511
98574072,512
98584113,510
98594151,509
98604164,511
98614206,511
98624245,510
98634256,512
98644298,505
98654344,512
98664356,511
98674401,505
98684441,504
98694482,509
98704496,508
98714536,503
98724574,507
98734584,505
98744628,509
98754674,512
98764684,509
98774722,507
98784763,511
98794775,511
98804818,510
98814857,504
98824866,507
98834907,509
98844948,507
98854958,511
98864998,511
98875040,507
98885051,508
98895094,509
98905135,504
98915144,509
98925181,504
98935219,504
98945226,514
98955262,511
98965300,508
98975335,514
98985342,507
98995383,508
99005423,508
99015432,509
99025471,510
99035511,512
99045517,512
99055555,513
99065592,508
99075599,508
99085636,508
99095673,506
99105680,505
99115717,509
99125756,509
99135766,511
99145807,511
99155847,505
99165854,511
99175896,510
99185937,508
99195949,507
99205993,504
99216035,509
99226080,507
99236092,511
99246132,511
99256173,510
99266183,509
99276223,514
99286263,510
99296274,508
99306311,506
99316351,507
99326361,507
99336404,511
99346447,513
99356459,511
99366504,505
99376544,507
99386553,512
99396591,511
99406631,510
99416642,503
99426686,510
99436731,511
99446747,508
99456790,507
99466833,503
99476876,504
99486889,511
99496931,510
99506974,510
99516984,509
99527025,511
99537066,508
99547075,506
99557117,506
99567160,510
99577170,509
99587208,507
99597253,511
99607264,510
99617306,507
99627346,508
99637356,503
99647399,508
99657447,509
99667467,505
99677520,507
99687567,508
99697581,510
99707624,511
99717672,509
99727722,507
99737741,514
99747789,514
99757837,514
99767851,512
99777898,509
99787941,507
99797957,513
99808004,513
99818051,512
99828071,505
99838125,511
99848178,510
99858198,506
99868248,508
99878295,510
99888308,509
99898353,509
99908398,503
99918413,509
99928458,510
99938501,502
99948513,506
99958557,509
99968599,506
99978642,505
99988656,510
99998700,510
100008745,510
100018756,511
100028795,510
100038842,513
100048858,508
100058904,510
100068950,510
100078963,510
100089008,508
100099054,510
100109068,512
100119112,513
100129156,504
100139174,502
100149218,506
100159260,511
100169272,507
100179315,508
100189357,509
100199370,511
100209415,512
100219460,505
100229502,511
100239514,509
100249556,507
100259600,507
100269612,503
100279653,508
100289696,509
100299708,505
100309754,509
100319797,507
100329809,505
100339852,507
100349898,511
100359913,512
100369958,512
100380003,507
100390019,504
100400065,512
100410110,510
100420125,503
100430170,508
100440214,512
100450254,506
100460262,508
100470306,504
100480351,507
100490364,509
100500407,505
100510450,509
100520462,506
100530505,512
100540545,512
100550556,511
100560598,513
100570643,508
100580655,513
100590701,507
100600748,513
100610762,509
100620808,508
100630852,504
100640868,507
100650909,508
100660950,511
100670961,512
100681003,511
100691046,508
100701059,510
100711103,511
100721147,511
100731192,509
100741210,507
100751253,509
100761296,506
100771311,512
100781356,512
100791400,504
100801409,509
100811454,512
100821499,510
100831513,512
100841559,511
100851601,509
100861615,504
100871660,512
100881703,510
100891716,513
100901757,511
100911799,504
100921810,508
100931848,509
100941888,509
100951899,510
100961938,511
100971980,510
100982021,505
100992034,511
101002075,511
101012113,511
101022121,503
101032159,511
101042196,513
101052204,513
101062243,510
101072282,512
101082292,512
101092331,510
101102372,514
101112380,512
101122420,511
101132460,507
101142468,511
101152508,507
101162545,508
101172555,509
101182595,512
101192633,508
101202642,512
101212682,507
101222725,512
101232762,509
101242771,513
101252815,514
101262859,512
101272870,514
101282912,511
101292955,513
101302967,515
101313012,512
101323059,516
101333072,508
101343115,512
101353160,511
101363173,508
101373217,513
101383261,504
101393277,512
101403319,509
101413364,511
101423377,507
101433421,505
101443461,508
101453500,509
101463506,510
101473547,503
101483586,508
101493591,507
101503631,503
101513669,503
101523680,506
101533721,511
101543765,509
101553778,512
101563820,506
101573859,511
101583871,511
101593914,508
101603957,510
101613969,512
101624012,507
101634054,506
101644063,512
101654103,512
101664143,510
101674154,508
101684196,504
101694235,512
101704276,511
101714292,508
101724337,503
101734381,508
101744395,504
101754440,511
101764486,506
101774502,512
101784545,509
101794589,508
101804601,511
101814644,512
101824689,512
101834702,504
101844744,510
101854784,511
101864797,511
101874842,505
101884887,507
101894898,512
101904940,510
101914981,510
101924994,510
101935040,508
101945084,508
101955099,509
101965141,505
101975183,512
101985229,506
101995242,509
102005283,512
102015324,510
102025335,510
102035378,512
102045422,508
102055436,512
102065482,509
102075527,513
102085542,515
102095585,513
102105631,514
102115645,517
102125686,511
102135728,514
102145737,512
102155783,510
102165826,513
102175841,513
102185886,510
102195929,508
102205943,505
102215986,511
102226027,501
102236069,505
102246081,504
102256126,508
102266170,511
102276187,510
102286234,508
102296277,502
102306284,503
102316323,506
102326362,505
102336375,508
102346415,512
102356457,506
102366469,507
102376515,512
102386561,512
102396576,508
102406620,508
102416666,511
102426680,509
102436726,497
102446768,503
102456813,503
102466829,505
102476874,512
102486918,510
102496931,511
102506977,509
102517022,504
102527037,510
102537080,510
102547125,511
102557140,512
102567183,508
102577229,513
102587239,507
102597281,512
102607325,503
102617335,512
102627373,512
102637415,506
102647426,512
102657467,507
102667509,507
102677526,511
102687573,511
102697620,507
102707629,513
102717668,505
102727708,512
102737749,506
102747759,509
102757800,510
102767845,513
102777860,502
102787905,511
102797949,511
102807959,509
102818000,511
102828042,506
102838053,511
102848097,512
102858138,513
