timestamp, ppg
13526248,511
13536160,504
13546189,516
13556248,518
13566306,524
13576331,526
13586381,526
13596424,532
13606439,531
13616485,530
13626531,525
13636578,515
13646595,520
13656640,519
13666683,511
13676699,509
13686747,503
13696793,506
13706810,506
13716859,505
13726906,510
13736923,503
13746969,503
13757017,506
13767040,496
13777090,506
13787140,505
13797159,501
13807209,503
13817256,506
13827272,505
13837321,502
13847368,500
13857390,497
13867442,504
13877492,502
13887511,502
13897561,508
13907610,510
13917659,505
13927675,505
13937726,501
13947773,506
13957789,497
13967839,502
13977892,506
13987912,500
13997962,502
14008012,503
14018031,501
14028082,499
14038134,503
14048157,505
14058210,506
14068261,498
14078284,505
14088336,502
14098389,503
14108411,506
14118465,506
14128520,508
14138575,504
14148597,505
14158653,501
14168703,500
14178725,500
14188775,504
14198824,498
14208840,500
14218890,503
14228937,498
14238956,507
14249007,499
14259059,500
14269081,505
14279133,496
14289186,500
14299205,493
14309258,503
14319307,502
14329327,498
14339377,504
14349422,505
14359441,506
14369490,508
14379540,513
14389557,518
14399607,516
14409658,525
14419706,530
14429725,529
14439774,526
14449823,525
14459841,523
14469889,520
14479937,517
14489955,511
14500001,513
14510047,502
14520066,504
14530114,505
14540167,502
14550192,500
14560247,494
14570298,500
14580314,500
14590363,498
14600411,501
14610429,497
14620476,504
14630524,503
14640542,501
14650592,506
14660644,503
14670696,503
14680718,504
14690770,511
14700817,508
14710834,504
14720882,507
14730929,499
14740948,502
14750994,505
14761043,500
14771061,496
14781111,499
14791163,501
14801183,504
14811233,501
14821281,504
14831301,498
14841352,495
14851403,501
14861426,500
14871474,501
14881522,493
14891541,497
14901590,498
14911639,504
14921687,505
14931705,505
14941749,506
14951796,506
14961815,502
14971862,507
14981905,506
14991919,509
15001969,506
15012020,509
15022039,503
15032087,506
15042133,502
15052146,505
15062189,501
15072236,504
15082252,504
15092298,504
15102346,498
15112365,502
15122410,504
15132457,506
15142505,496
15152524,508
15162571,502
15172619,508
15182639,509
15192689,514
15202742,522
15212763,524
15222813,528
15232861,530
15242883,522
15252934,527
15262985,516
15273011,521
15283068,515
15293123,512
15303146,509
15313200,507
15323253,511
15333275,506
15343329,503
15353379,503
15363398,495
15373449,501
15383500,500
15393522,499
15403572,498
15413623,495
15423672,499
15433690,499
15443740,495
15453791,493
15463812,502
15473864,501
15483915,503
15493936,507
15503987,510
15514040,508
15524063,504
15534115,511
15544164,512
15554183,504
15564235,510
15574286,506
15584306,508
15594357,510
15604409,506
15614430,503
15624482,506
15634533,505
15644556,505
15654610,502
15664663,498
15674714,503
15684734,500
15694785,504
15704838,505
15714860,503
15724911,497
15734962,497
15744986,501
15755036,497
15765086,497
15775104,498
15785152,487
15795203,495
15805223,491
15815275,491
15825329,489
15835350,498
15845403,492
15855452,499
15865473,500
15875527,503
15885583,506
15895638,508
15905659,505
15915710,506
15925762,512
15935781,513
15945830,527
15955880,524
15965897,533
15975945,535
15985993,540
15996011,537
16006058,537
16016105,532
16026122,533
16036172,525
16046219,528
16056236,520
16066283,519
16076331,514
16086350,512
16096401,512
16106449,510
16116466,509
16126517,506
16136568,505
16146615,499
16156630,502
16166677,501
16176726,497
16186743,500
16196790,495
16206838,495
16216857,503
16226907,501
16236955,499
16246975,508
16257026,510
16267076,507
16277094,509
16287144,514
16297193,513
16307213,510
16317262,513
16327312,512
16337330,512
16347381,512
16357432,507
16367449,512
16377497,512
16387544,505
16397557,510
16407603,508
16417649,507
16427695,511
16437708,508
16447754,511
16457798,505
16467812,507
16477857,506
16487904,505
16497920,504
16507966,502
16518009,505
16528028,506
16538074,506
16548123,504
16558141,506
16568191,506
16578239,503
16588259,504
16598306,504
16608354,500
16618371,499
16628419,506
16638469,504
16648520,505
16658541,506
16668590,500
16678640,504
16688661,512
16698709,511
16708755,512
16718770,518
16728818,513
16738867,520
16748886,518
16758936,521
16768983,520
16779001,520
16789052,516
16799102,519
16809121,513
16819175,510
16829226,507
16839243,504
16849290,509
16859337,511
16869354,505
16879408,511
16889457,509
16899472,510
16909521,507
16919569,512
16929615,504
16939631,510
16949678,507
16959724,513
16969740,512
16979789,509
16989839,515
16999858,513
17009912,506
17019967,514
17029990,520
17040044,508
17050097,512
17060119,505
17070174,508
17080226,509
17090247,511
17100301,505
17110354,510
17120376,503
17130427,501
17140477,508
17150498,507
17160550,502
17170603,504
17180654,503
17190674,504
17200727,504
17210778,503
17220800,502
17230851,504
17240904,499
17250928,496
17260980,499
17271030,501
17281051,493
17291101,494
17301156,496
17311181,504
17321237,501
17331292,504
17341315,498
17351369,504
17361421,505
17371445,507
17381497,502
17391552,504
17401605,508
17411626,509
17421680,505
17431734,511
17441756,516
17451808,516
17461859,524
17471878,520
17481927,527
17491984,528
17502010,529
17512068,527
17522125,527
17532151,518
17542204,519
17552253,516
17562269,516
17572317,508
17582367,511
17592387,506
17602438,509
17612486,504
17622503,504
17632550,508
17642597,506
17652646,505
17662666,505
17672717,504
17682769,507
17692790,499
17702841,511
17712892,503
17722914,505
17732966,512
17743016,508
17753036,507
17763088,510
17773140,504
17783158,504
17793208,510
17803257,500
17813274,510
17823325,508
17833375,508
17843394,507
17853445,504
17863496,506
17873513,501
17883561,496
17893609,501
17903659,504
17913679,502
17923731,497
17933783,501
17943802,502
17953850,505
17963901,505
17973918,506
17983966,508
17994016,506
18004035,504
18014086,512
18024136,507
18034156,512
18044209,511
18054259,509
18064278,512
18074327,514
18084379,508
18094400,512
18104448,508
18114500,503
18124519,510
18134569,514
18144621,514
18154673,517
18164690,516
18174739,520
18184789,520
18194810,523
18204860,518
18214908,514
18224931,520
18234985,512
18245038,512
18255063,515
18265119,512
18275172,511
18285189,508
18295240,501
18305297,499
18315318,499
18325369,503
18335418,499
18345434,492
18355480,499
18365527,495
18375548,498
18385601,498
18395651,496
18405699,503
18415719,495
18425771,496
18435824,499
18445845,502
18455896,506
18465949,506
18475970,501
18486022,504
18496069,504
18506084,505
18516132,501
18526182,505
18536198,508
18546245,503
18556294,502
18566314,505
18576365,502
18586417,507
18596440,504
18606490,507
18616540,506
18626559,501
18636609,503
18646655,506
18656701,508
18666720,507
18676766,508
18686811,504
18696826,499
18706875,508
18716924,504
18726933,500
18736975,505
18747021,500
18757036,506
18767083,501
18777128,505
18787143,503
18797189,505
18807235,507
18817248,505
18827294,508
18837339,514
18847352,515
18857398,515
18867445,516
18877462,527
18887511,527
18897557,526
18907602,526
18917618,521
18927662,521
18937703,519
18947711,516
18957754,519
18967799,517
18977816,511
18987867,507
18997916,505
19007936,509
19017991,506
19028046,506
19038072,505
19048127,499
19058181,501
19068204,503
19078260,504
19088316,496
19098340,501
19108388,505
19118437,502
19128457,507
19138504,508
19148550,503
19158565,508
19168610,508
19178658,511
19188707,512
19198724,504
19208771,513
19218822,511
19228837,512
19238886,512
19248932,511
19258950,510
19268998,509
19279049,510
19289064,509
19299111,506
19309158,508
19319174,500
19329222,506
19339268,507
19349283,500
19359331,502
19369378,502
19379395,504
19389443,500
19399493,504
19409512,506
19419559,497
19429602,497
19439646,500
19449660,501
19459706,502
19469751,498
19479765,499
19489809,506
19499854,512
19509864,510
19519901,520
19529944,522
19539959,528
19550002,527
19560050,525
19570070,533
19580119,536
19590171,534
19600194,529
19610248,525
19620300,525
19630317,518
19640367,519
19650414,516
19660462,515
19670484,512
19680540,509
19690596,512
19700621,510
19710679,504
19720736,504
19730762,507
19740819,504
19750876,494
19760903,502
19770956,500
19781006,505
19791027,506
19801076,501
19811127,507
19821146,501
19831193,509
19841245,505
19851270,506
19861323,505
19871373,506
19881393,503
19891440,508
19901487,508
19911533,501
19921550,500
19931596,498
19941641,504
19951655,499
19961698,503
19971742,503
19981755,503
19991800,503
20001846,509
20011862,511
20021904,511
20031950,509
20041968,510
20052016,513
20062065,508
20072079,513
20082123,506
20092169,507
20102185,503
20112233,502
20122280,506
20132296,506
20142340,500
20152385,507
20162430,503
20172447,499
20182493,499
20192540,503
20202556,504
20212602,514
20222647,514
20232667,512
20242714,525
20252761,529
20262774,522
20272822,529
20282873,529
20292889,520
20302936,522
20312981,518
20322999,516
20333048,518
20343099,517
20353118,515
20363164,506
20373213,505
20383227,502
20393273,506
20403320,506
20413366,507
20423385,507
20433433,506
20443485,502
20453508,501
20463558,503
20473607,504
20483625,500
20493679,503
20503729,509
20513747,503
20523793,502
20533841,510
20543860,509
20553911,504
20563957,511
20573976,505
20584026,507
20594076,511
20604096,501
20614147,501
20624198,507
20634219,506
20644271,504
20654321,504
20664373,506
20674394,497
20684447,504
20694503,501
20704524,502
20714572,500
20724624,504
20734644,505
20744695,499
20754746,500
20764768,501
20774819,505
20784870,506
20794887,505
20804935,502
20814987,505
20825010,503
20835063,505
20845115,504
20855134,502
20865183,497
20875233,502
20885254,504
20895304,501
20905355,504
20915374,504
20925425,508
20935475,508
20945524,519
20955543,521
20965591,522
20975641,532
20985660,531
20995709,534
21005759,529
21015776,534
21025827,532
21035877,528
21045894,521
21055939,518
21065990,515
21076009,514
21086058,513
21096107,510
21106124,510
21116173,508
21126226,502
21136248,503
21146300,501
21156352,495
21166400,499
21176417,498
21186468,501
21196516,496
21206534,497
21216583,505
21226628,499
21236643,504
21246691,504
21256740,506
21266763,509
21276815,507
21286865,507
21296886,502
21306937,507
21316986,500
21327004,510
21337055,502
21347109,504
21357128,501
21367176,504
21377226,502
21387243,504
21397288,504
21407334,500
21417352,500
21427402,496
21437450,505
21447500,502
21457519,502
21467570,507
21477620,502
21487639,507
21497690,506
21507742,508
21517761,502
21527811,506
21537863,499
21547884,500
21557936,504
21567986,507
21578006,503
21588056,501
21598107,505
21608124,504
21618169,509
21628216,513
21638234,513
21648283,517
21658334,526
21668384,530
21678400,531
21688449,530
21698496,534
21708514,534
21718562,529
21728613,531
21738631,520
21748679,520
21758729,519
21768748,520
21778800,515
21788850,510
21798872,505
21808927,506
21818980,502
21829002,504
21839051,503
21849101,499
21859120,497
21869170,496
21879220,497
21889238,500
21899284,499
21909334,502
21919385,503
21929409,506
21939462,508
21949516,505
21959537,508
21969589,511
21979639,510
21989661,509
21999712,509
22009765,505
22019786,511
22029839,501
22039889,503
22049909,497
22059960,501
22070007,505
22080023,497
22090072,508
22100119,498
22110138,507
22120187,496
22130237,502
22140255,502
22150302,497
22160350,502
22170371,502
22180423,506
22190473,502
22200521,508
22210540,510
22220586,501
22230632,510
22240650,500
22250699,497
22260750,507
22270769,496
22280818,497
22290869,505
22300886,506
22310931,508
22320979,519
22330999,524
22341048,530
22351096,525
22361113,532
22371160,540
22381208,537
22391225,533
22401271,530
22411318,532
22421335,530
22431384,526
22441430,517
22451475,511
22461491,511
22471538,512
22481584,509
22491602,499
22501646,497
22511687,504
22521701,498
22531750,501
22541800,496
22551816,494
22561863,501
22571911,497
22581927,498
22591974,501
22602020,501
22612039,502
22622088,505
22632136,500
22642156,506
22652200,505
22662247,504
22672266,509
22682312,501
22692357,501
22702409,505
22712430,509
22722482,505
22732534,507
22742553,505
22752604,501
22762654,500
22772674,507
22782722,506
22792771,501
22802789,505
22812839,497
22822889,503
22832910,501
22842962,505
22853014,502
22863032,507
22873081,502
22883132,505
22893152,503
22903205,504
22913260,503
22923282,504
22933334,504
22943387,503
22953435,506
22963456,505
22973508,497
22983557,508
22993576,504
23003627,513
23013675,518
23023696,521
23033745,525
23043791,526
23053804,531
23063848,533
23073890,536
23083902,537
23093949,533
23103995,524
23114009,531
23124051,527
23134095,522
23144108,515
23154151,512
23164196,508
23174208,505
23184254,508
23194303,501
23204353,505
23214372,505
23224420,496
23234470,496
23244490,499
23254535,496
23264580,501
23274597,500
23284645,502
23294688,496
23304701,504
23314744,500
23324791,504
23334808,507
23344857,508
23354905,504
23364918,498
23374962,510
23385008,505
23395025,507
23405073,508
23415117,507
23425165,499
23435183,504
23445231,502
23455279,499
23465298,503
23475340,502
23485381,506
23495394,500
23505436,506
23515478,487
23525490,504
23535534,500
23545581,504
23555596,496
23565641,505
23575684,502
23585697,502
23595742,507
23605785,499
23615795,502
23625837,499
23635881,504
23645893,503
23655936,499
23665979,499
23675993,502
23686035,500
23696079,499
23706124,502
23716140,499
23726186,509
23736233,506
23746248,517
23756294,521
23766341,530
23776356,531
23786403,534
23796448,535
23806463,533
23816503,536
23826547,524
23836561,530
23846607,527
23856650,523
23866664,514
23876708,515
23886753,513
23896770,508
23906817,502
23916862,502
23926909,503
23936924,499
23946971,492
23957018,489
23967035,496
23977081,495
23987126,497
23997142,494
24007186,499
24017230,505
24027242,502
24037285,503
24047330,504
24057347,507
24067394,509
24077444,500
24087460,506
24097504,506
24107551,507
24117567,509
24127614,501
24137661,510
24147675,507
24157719,502
24167763,497
24177808,504
24187822,501
24197869,502
24207915,504
24217928,504
24227971,506
24238016,501
24248030,504
24258074,502
24268116,497
24278128,506
24288174,498
24298223,506
24308240,501
24318288,505
24328333,500
24338350,504
24348397,503
24358441,498
24368457,504
24378503,506
24388546,505
24398557,503
24408601,502
24418646,508
24428688,501
24438700,505
24448745,506
24458792,505
24468805,511
24478848,516
24488894,519
24498910,528
24508955,525
24519004,534
24529024,530
24539073,535
24549121,528
24559141,523
24569192,529
24579244,522
24589267,520
24599317,517
24609369,515
24619383,509
24629432,505
24639480,506
24649498,499
24659548,495
24669598,504
24679617,501
24689659,501
24699702,504
24709751,500
24719768,502
24729815,501
24739863,501
24749882,500
24759931,506
24769978,505
24779989,508
24790032,501
24800080,510
24810097,511
24820143,505
24830191,506
24840209,508
24850257,504
24860303,509
24870318,505
24880364,504
24890413,505
24900430,506
24910473,503
24920516,504
24930560,500
24940575,497
24950621,499
24960672,504
24970691,502
24980743,502
24990795,503
25000815,496
25010865,499
25020916,505
25030945,504
25041003,502
25051062,504
25061085,499
25071133,500
25081178,496
25091196,507
25101242,497
25111285,505
25121299,505
25131345,507
25141390,508
25151403,494
25161447,505
25171494,505
25181538,507
25191552,509
25201600,514
25211649,518
25221667,521
25231714,525
25241762,524
25251782,533
25261834,531
25271887,531
25281907,533
25291956,533
25302007,522
25312026,524
25322070,521
25332114,511
25342123,512
25352166,512
25362208,503
25372219,506
25382262,497
25392305,494
25402318,502
25412361,501
25422405,498
25432449,499
25442466,492
25452514,497
25462557,504
25472571,502
25482617,496
25492662,501
25502677,504
25512727,504
25522776,504
25532795,507
25542846,504
25552895,500
25562916,508
25572965,508
25583014,507
25593033,502
25603084,506
25613138,503
25623159,505
25633215,505
25643273,505
25653298,502
25663349,497
25673399,501
25683418,497
25693466,502
25703513,498
25713563,502
25723580,497
25733625,499
25743674,502
25753692,505
25763741,509
25773787,497
25783805,507
25793853,503
25803902,503
25813918,506
25823963,505
25834009,506
25844030,501
25854077,506
25864127,510
25874146,508
25884195,504
25894243,506
25904259,508
25914308,502
25924355,503
25934375,509
25944423,512
25954473,513
25964525,514
25974547,521
25984597,526
25994646,530
26004664,530
26014714,535
26024767,530
26034787,523
26044834,523
26054882,521
26064898,522
26074945,516
26084988,508
26095005,509
26105052,510
26115096,499
26125109,505
26135156,503
26145203,502
26155216,499
26165262,496
26175308,496
26185321,495
26195367,497
26205410,500
26215456,505
26225470,504
26235515,505
26245559,508
26255576,503
26265622,507
26275663,500
26285676,508
26295718,507
26305763,509
26315773,504
26325816,505
26335860,503
26345870,500
26355912,507
26365958,507
26375970,503
26386015,504
26396059,498
26406072,506
26416116,502
26426161,502
26436206,501
26446219,501
26456266,506
26466314,504
26476330,506
26486379,500
26496427,506
26506448,502
26516500,503
26526553,501
26536576,499
26546626,508
26556681,506
26566705,504
26576756,502
26586804,500
26596822,501
26606872,506
26616918,502
26626935,505
26636986,504
26647036,504
26657052,506
26667101,499
26677154,502
26687213,508
26697236,512
26707287,514
26717335,520
26727353,526
26737404,528
26747457,529
26757474,531
26767519,526
26777570,523
26787592,530
26797643,527
26807695,521
26817719,518
26827771,514
26837822,511
26847841,506
26857890,507
26867939,495
26877961,511
26888012,497
26898065,503
26908092,496
26918150,502
26928206,505
26938234,505
26948292,506
26958353,504
26968411,509
26978439,509
26988498,509
26998555,508
27008585,511
27018644,510
27028705,511
27038733,507
27048792,508
27058844,511
27068866,506
27078919,510
27088973,500
27098997,501
27109048,507
27119100,509
27129124,506
27139179,508
27149240,507
27159271,508
27169327,501
27179384,502
27189409,507
27199463,506
27209517,508
27219569,501
27229589,508
27239642,499
27249694,507
27259719,503
27269776,508
27279832,508
27289857,504
27299910,507
27309964,510
27319985,509
27330037,506
27340088,505
27350110,508
27360162,509
27370215,506
27380238,512
27390293,510
27400349,517
27410377,520
27420436,519
27430493,530
27440550,526
27450577,530
27460630,530
27470683,525
27480705,522
27490757,519
27500809,522
27510831,515
27520880,511
27530929,513
27540949,507
27550999,507
27561051,505
27571075,504
27581125,496
27591176,499
27601196,500
27611246,497
27621294,500
27631312,504
27641360,501
27651409,500
27661428,500
27671477,503
27681525,502
27691543,507
27701590,511
27711638,511
27721683,508
27731695,505
27741742,511
27751794,509
27761812,510
27771859,508
27781907,507
27791921,500
27801967,507
27812012,503
27822025,505
27832070,504
27842114,502
27852127,504
27862174,499
27872220,503
27882237,503
27892281,499
27902327,503
27912340,506
27922388,503
27932439,507
27942488,506
27952510,509
27962560,503
27972608,510
27982628,507
27992674,501
28002722,511
28012738,508
28022787,507
28032837,505
28042854,507
28052900,503
28062945,510
28072964,505
28083013,513
28093062,519
28103080,523
28113128,530
28123173,532
28133191,529
28143236,524
28153278,523
28163292,525
28173339,525
28183388,518
28193432,524
28203445,518
28213489,514
28223533,513
28233545,507
28243590,505
28253638,508
28263655,506
28273705,505
28283755,506
28293775,502
28303826,499
28313878,506
28323899,496
28333950,507
28344001,508
28354024,511
28364076,510
28374129,512
28384152,503
28394201,505
28404252,515
28414272,512
28424318,506
28434366,511
28444385,510
28454441,510
28464498,502
28474552,506
28484574,507
28494626,504
28504676,500
28514690,509
28524738,509
28534783,503
28544799,506
28554839,504
28564880,509
28574895,504
28584942,507
28594990,502
28605007,509
28615053,508
28625095,510
28635104,509
28645145,506
28655191,508
28665207,508
28675255,506
28685300,499
28695348,506
28705367,507
28715410,504
28725455,508
28735472,507
28745520,504
28755568,507
28765585,512
28775632,507
28785680,518
28795696,518
28805743,524
28815788,527
28825802,525
28835847,529
28845896,527
28855914,524
28865960,527
28876008,522
28886028,517
28896073,520
28906114,512
28916128,508
28926173,503
28936219,507
28946265,502
28956282,502
28966326,504
28976378,497
28986397,499
28996448,500
29006498,504
29016522,504
29026575,502
29036622,501
29046644,500
29056698,509
29066753,509
29076777,507
29086831,510
29096884,510
29106904,504
29116954,510
29127000,506
29137022,504
29147073,510
29157125,505
29167147,503
29177197,504
29187248,503
29197300,507
29207321,502
29217374,505
29227431,505
29237456,498
29247506,503
29257560,507
29267581,502
29277633,503
29287684,505
29297705,504
29307759,507
29317810,502
29327829,504
29337881,499
29347933,504
29357951,503
29368001,507
29378052,507
29388072,509
29398119,508
29408162,505
29418174,505
29428220,508
29438265,508
29448311,499
29458328,505
29468373,505
29478423,508
29488444,506
29498496,514
29508549,515
29518567,522
29528616,521
29538665,523
29548683,524
29558732,526
29568783,527
29578804,524
29588855,526
29598906,521
29608925,520
29618976,519
29629030,512
29639054,511
29649108,510
29659161,507
29669182,509
29679233,506
29689283,504
29699298,504
29709350,503
29719402,509
29729456,499
29739479,506
29749530,503
29759583,508
29769604,503
29779653,508
29789705,507
29799725,511
29809776,507
29819824,505
29829843,509
29839893,508
29849945,505
29859966,508
29870017,507
29880067,502
29890087,505
29900139,507
29910188,498
29920207,501
29930259,508
29940312,508
29950331,504
29960384,508
29970435,502
29980487,507
29990509,505
30000559,500
30010611,506
30020630,503
30030678,509
30040723,508
30050733,501
30060780,502
30070831,507
30080852,503
30090903,504
30100952,514
30110970,507
30121020,505
30131071,510
30141089,502
30151137,507
30161184,505
30171201,503
30181244,505
30191289,509
30201335,510
30211351,508
30221396,506
30231443,511
30241460,513
30251504,520
30261548,525
30271563,530
30281611,527
30291657,532
30301676,524
30311726,526
30321778,520
30331798,521
30341844,518
30351893,514
30361913,514
30371964,510
30382016,505
30392037,502
30402087,507
30412136,503
30422154,498
30432204,500
30442254,499
30452301,500
30462316,497
30472361,498
30482405,501
30492421,501
30502467,504
30512516,506
30522536,507
30532584,505
30542636,509
30552655,502
30562702,507
30572748,510
30582764,508
30592809,508
30602857,512
30612875,512
30622924,512
30632972,503
30642987,508
30653032,506
30663077,503
30673091,499
30683134,504
30693177,504
30703190,502
30713236,499
30723281,506
30733324,495
30743340,500
30753386,502
30763432,501
30773448,497
30783493,500
30793540,500
30803558,497
30813606,503
30823654,505
30833675,507
30843724,511
30853768,508
30863780,511
30873826,511
30883873,503
30893887,511
30903931,503
30913975,510
30923991,507
30934043,503
30944093,511
30954143,511
30964160,514
30974204,512
30984248,517
30994263,528
31004310,527
31014358,530
31024375,528
31034423,524
31044470,522
31054484,526
31064532,514
31074580,517
31084594,517
31094639,503
31104686,503
31114703,505
31124751,503
31134796,506
31144811,505
31154857,506
31164905,504
31174921,506
31184965,506
31195010,505
31205024,509
31215071,509
31225118,510
31235162,509
31245174,505
31255217,509
31265260,508
31275275,510
31285319,510
31295365,509
31305378,506
31315423,510
31325468,507
31335483,504
31345530,510
31355578,506
31365593,506
31375637,507
31385682,507
31395695,508
31405738,509
31415782,504
31425797,507
31435846,505
31445895,503
31455914,508
31465963,508
31476010,508
31486057,506
31496073,503
31506122,508
31516171,507
31526188,506
31536235,508
31546282,507
31556299,510
31566346,506
31576392,501
31586410,499
31596459,505
31606509,503
31616527,500
31626576,504
31636622,507
31646636,503
31656684,510
31666732,508
31676751,517
31686801,521
31696848,522
31706865,528
31716915,530
31726964,520
31737014,529
31747030,528
31757077,523
31767125,521
31777142,522
31787192,510
31797240,515
31807257,509
31817303,514
31827347,512
31837361,509
31847406,509
31857454,508
31867468,507
31877514,506
31887561,504
31897581,505
31907627,506
31917671,502
31927685,506
31937731,507
31947779,506
31957795,511
31967841,509
31977888,510
31987934,510
31997952,512
32008000,506
32018049,505
32028068,506
32038120,505
32048171,504
32058190,508
32068240,506
32078289,502
32088306,509
32098352,505
32108400,501
32118417,504
32128463,504
32138511,506
32148526,507
32158572,504
32168620,496
32178636,506
32188684,510
32198730,503
32208743,505
32218792,502
32228837,503
32238884,501
32248901,509
32258950,505
32268999,510
32279018,507
32289066,501
32299114,510
32309132,509
32319183,506
32329232,503
32339252,506
32349301,503
32359349,510
32369367,509
32379414,514
32389464,516
32399481,523
32409530,525
32419579,531
32429598,525
32439644,527
32449689,528
32459734,520
32469751,522
32479798,516
32489847,519
32499865,516
32509915,506
32519964,511
32529984,504
32540034,506
32550084,499
32560101,500
32570149,504
32580198,497
32590215,499
32600265,496
32610313,494
32620332,499
32630381,500
32640429,502
32650445,501
32660490,505
32670537,501
32680554,499
32690600,501
32700648,503
32710694,501
32720708,511
32730757,505
32740808,504
32750828,512
32760878,510
32770929,505
32780949,514
32790999,509
32801049,503
32811066,511
32821113,508
32831162,509
32841180,512
32851229,502
32861282,509
32871309,509
32881368,505
32891424,506
32901447,505
32911506,501
32921563,504
32931589,504
32941642,502
32951693,507
32961710,502
32971758,507
32981808,506
32991861,511
33001881,507
33011932,502
33021987,510
33032009,509
33042059,511
33052104,508
33062117,512
33072164,506
33082211,510
33092228,517
33102273,517
33112318,522
33122335,526
33132383,524
33142429,528
33152444,523
33162489,527
33172534,523
33182551,522
33192598,521
33202649,519
33212698,522
33222712,518
33232756,516
33242800,511
33252813,505
33262860,513
33272903,512
33282916,504
33292962,505
33303007,503
33313019,504
33323062,507
33333108,505
33343126,508
33353174,510
33363221,508
33373238,510
33383290,508
33393341,511
33403361,513
33413413,511
33423464,508
33433487,511
33443539,509
33453592,513
33463614,503
33473667,509
33483720,509
33493772,506
33503792,511
33513842,503
33523893,502
33533909,507
33543961,506
33554009,506
33564030,508
33574083,505
33584132,507
33594148,499
33604198,505
33614247,506
33624264,501
33634312,504
33644357,505
33654375,506
33664420,501
33674466,503
33684481,508
33694528,507
33704577,508
33714595,502
33724645,499
33734692,505
33744739,508
33754756,510
33764800,512
33774848,504
33784868,512
33794917,515
33804969,521
33814989,522
33825042,521
33835092,525
33845111,528
33855163,524
33865213,527
33875233,526
33885281,523
33895331,518
33905348,521
33915392,511
33925435,511
33935449,510
33945493,512
33955542,511
33965561,505
33975609,506
33985658,506
33995704,506
34005721,502
34015771,503
34025819,503
34035838,508
34045886,502
34055937,505
34065959,501
34076007,510
34086057,505
34096077,510
34106127,512
34116177,506
34126200,506
34136251,512
34146301,506
34156324,509
34166375,504
34176426,507
34186442,505
34196491,503
34206543,500
34216595,509
34226617,503
34236667,506
34246716,505
34256735,506
34266786,499
34276837,505
34286856,506
34296905,506
34306955,505
34316972,506
34327020,502
34337066,509
34347083,504
34357132,507
34367182,508
34377199,503
34387244,504
34397295,505
34407312,501
34417362,507
34427410,505
34437425,500
34447476,508
34457528,510
34467579,504
34477600,515
34487651,513
34497699,516
34507715,521
34517761,516
34527804,523
34537817,528
34547862,527
34557912,526
34567934,525
34577984,519
34588035,523
34598051,517
34608101,515
34618150,514
34628170,507
34638219,509
34648269,489
34658289,505
34668338,496
34678387,504
34688407,502
34698457,504
34708507,504
34718559,500
34728584,506
34738636,503
34748689,505
34758710,514
34768765,511
34778818,508
34788844,509
34798899,511
34808956,507
34818977,505
34829025,511
34839069,512
34849084,508
34859129,503
34869175,506
34879189,509
34889235,503
34899281,499
34909296,505
34919338,501
34929387,507
34939403,502
34949451,498
34959497,502
34969514,504
34979561,501
34989604,506
34999644,510
35009656,502
35019701,500
35029744,501
35039755,502
35049802,504
35059847,508
35069863,502
35079911,508
35089956,510
35099972,509
35110018,508
35120064,504
35130076,504
35140121,509
35150167,507
35160181,504
35170225,510
35180270,499
35190283,506
35200328,504
35210373,511
35220419,511
35230436,516
35240480,522
35250526,519
35260541,523
35270586,527
35280631,530
35290646,528
35300691,531
35310736,526
35320748,518
35330792,525
35340838,515
35350854,518
35360901,515
35370948,507
35380968,510
35391014,511
35401060,509
35411071,500
35421117,503
35431166,504
35441185,505
35451233,501
35461281,497
35471328,501
35481345,505
35491392,503
35501442,499
35511458,499
35521504,510
35531547,507
35541563,501
35551611,510
35561658,506
35571675,505
35581722,510
35591774,500
35601796,502
35611849,506
35621903,504
35631922,497
35641972,503
35652020,504
35662039,498
35672088,508
35682136,502
35692153,498
35702199,504
35712244,507
35722257,502
35732305,507
35742349,508
35752394,504
35762408,502
35772454,509
35782500,500
35792513,503
35802556,505
35812599,505
35822613,505
35832659,503
35842706,505
35852723,506
35862771,499
35872820,505
35882837,507
35892882,505
35902930,505
35912950,508
35922996,504
35933041,503
35943058,497
35953106,498
35963151,500
35973197,506
35983209,501
35993255,506
36003304,510
36013322,511
36023373,515
36033425,520
36043445,521
36053496,524
36063543,528
36073558,525
36083605,530
36093651,528
36103668,525
36113716,521
36123759,525
36133774,517
36143820,515
36153868,510
36163883,512
36173926,503
36183970,509
36193978,506
36204018,504
36214064,501
36224111,504
36234128,504
36244176,501
36254221,496
36264234,505
36274278,506
36284323,503
36294336,505
36304380,507
36314424,508
36324436,502
36334483,507
36344527,504
36354544,511
36364591,509
36374635,504
36384646,511
36394688,500
36404729,502
36414740,503
36424780,507
36434820,507
36444835,501
36454878,500
36464923,504
36474970,507
36484986,504
36495036,507
36505083,506
36515098,503
36525146,506
36535193,510
36545210,505
36555259,499
36565306,503
36575324,504
36585369,503
36595415,502
36605430,506
36615477,503
36625524,506
36635542,507
36645588,502
36655635,509
36665650,509
36675699,508
36685749,507
36695768,505
36705817,505
36715866,510
36725911,509
36735924,507
36745969,505
36756015,510
36766030,508
36776074,506
36786117,506
36796130,509
36806171,505
36816209,505
36826221,505
36836263,509
36846305,518
36856317,521
36866361,519
36876407,522
36886423,524
36896470,530
36906514,527
36916527,529
36926570,519
36936618,518
36946636,520
36956684,513
36966731,514
36976780,514
36986795,513
36996838,503
37006884,507
37016898,506
37026942,505
37036987,504
37046998,507
37057038,505
37067081,501
37077095,508
37087143,506
37097191,507
37107207,506
37117255,508
37127302,504
37137319,506
37147367,510
37157414,510
37167432,512
37177479,510
37187529,511
37197546,509
37207595,508
37217643,507
37227660,506
37237706,508
37247754,506
37257801,509
37267819,503
37277868,507
37287915,508
37297933,506
37307978,501
37318025,505
37328042,502
37338088,504
37348136,501
37358155,501
37368205,505
37378256,499
37388274,506
37398323,501
37408372,503
37418390,505
37428440,507
37438487,508
37448506,508
37458557,507
37468610,503
37478668,506
37488693,508
37498744,500
37508800,509
37518821,504
37528867,501
37538919,502
37548935,500
37558981,502
37569026,503
37579038,496
37589081,502
37599125,498
37609140,496
37619187,498
37629235,499
37639251,504
37649297,503
37659345,502
37669361,512
37679409,513
37689457,512
37699473,525
37709518,525
37719563,524
37729613,525
37739630,521
37749675,522
37759721,520
37769737,511
37779782,511
37789829,513
37799844,511
37809887,507
37819932,508
37829944,504
37839989,500
37850032,499
37860049,490
37870093,498
37880138,492
37890151,493
37900196,498
37910242,501
37920257,495
37930303,498
37940350,504
37950366,506
37960411,501
37970458,504
37980505,509
37990524,510
38000575,502
38010626,510
38020648,513
38030702,511
38040756,509
38050780,514
38060839,511
38070895,513
38080919,511
38090977,507
38101036,508
38111056,501
38121103,506
38131153,509
38141176,510
38151227,510
38161279,506
38171298,503
38181345,508
38191393,509
38201410,503
38211455,505
38221502,507
38231549,509
38241567,510
38251620,509
38261669,509
38271686,511
38281731,506
38291778,510
38301794,511
38311842,511
38321892,510
38331907,504
38341954,510
38352003,507
38362019,508
38372065,504
38382112,504
38392131,511
38402176,513
38412223,516
38422240,512
38432291,523
38442341,517
38452361,528
38462411,530
38472456,527
38482472,536
38492527,535
38502582,533
38512632,528
38522654,527
38532708,526
38542760,520
38552782,516
38562831,510
38572879,507
38582897,505
38592945,509
38602995,508
38613014,505
38623062,497
38633111,502
38643130,503
38653179,502
38663229,496
38673245,499
38683291,504
38693336,509
38703349,501
38713392,501
38723441,501
38733487,509
38743502,508
38753547,513
38763594,503
38773608,507
38783655,503
38793701,510
38803720,503
38813767,507
38823813,491
38833831,504
38843881,502
38853929,499
38863949,504
38874001,504
38884052,502
38894073,511
38904122,503
38914173,511
38924193,509
38934244,509
38944296,508
38954315,509
38964364,502
38974414,503
38984430,508
38994481,506
39004532,507
39014586,509
39024607,503
39034658,510
39044709,508
39054731,507
39064786,509
39074836,508
39084856,498
39094907,502
39104958,505
39114976,504
39125028,503
39135077,506
39145096,503
39155146,505
39165196,516
39175214,515
39185265,522
39195313,523
39205330,526
39215376,529
39225424,530
39235470,527
39245484,525
39255532,526
39265579,519
39275600,518
39285652,514
39295700,513
39305720,514
39315768,510
39325816,502
39335833,505
39345881,510
39355929,500
39365945,506
39375992,504
39386039,502
39396057,504
39406106,506
39416154,503
39426170,509
39436218,504
39446267,509
39456282,511
39466331,505
39476380,509
39486399,505
39496448,509
39506497,510
39516546,510
39526564,506
39536611,505
39546658,505
39556675,509
39566721,504
39576769,501
39586787,501
39596835,508
39606880,502
39616895,507
39626939,507
39636983,504
39647000,499
39657047,499
39667095,510
39677115,502
39687165,509
39697212,503
39707230,506
39717279,507
39727327,503
39737377,504
39747395,509
39757441,503
39767490,506
39777504,510
39787555,507
39797605,504
39807627,509
39817678,506
39827724,510
39837737,503
39847782,504
39857830,506
39867850,509
39877903,503
39887953,507
39897972,510
39908023,513
39918072,510
39928093,520
39938144,522
39948193,528
39958213,528
39968262,533
39978311,533
39988357,529
39998374,531
40008418,529
40018464,523
40028479,521
40038528,512
40048579,516
40058593,511
40068640,507
40078688,508
40088705,501
40098754,508
40108803,504
40118818,508
40128864,502
40138912,499
40148932,508
40158983,500
40169033,507
40179050,506
40189100,508
40199152,508
40209172,510
40219223,507
40229272,503
40239321,510
40249340,510
40259388,510
40269439,512
40279460,507
40289512,507
40299565,509
40309588,509
40319638,504
40329687,508
40339710,509
40349763,506
40359815,506
40369837,508
40379890,500
40389943,506
40399967,505
40410021,504
40420078,497
40430102,501
40440155,506
40450212,508
40460236,504
40470293,506
40480350,505
40490378,504
40500433,498
40510488,509
40520544,503
40530568,501
40540623,505
40550679,509
40560704,505
40570759,504
40580816,506
40590840,507
40600891,505
40610943,505
40620966,508
40631019,511
40641071,506
40651090,507
40661141,502
40671190,511
40681209,511
40691258,509
40701311,515
40711329,516
40721378,521
40731431,525
40741454,529
40751509,524
40761564,528
40771617,521
40781641,523
40791693,527
40801745,522
40811765,519
40821815,511
40831861,513
40841883,512
40851937,507
40861991,501
40872014,508
40882067,502
40892120,503
40902140,505
40912189,496
40922238,507
40932257,502
40942309,504
40952362,499
40962382,501
40972433,508
40982479,500
40992525,507
41002545,513
41012594,508
41022644,504
41032665,510
41042713,511
41052759,510
41062777,503
41072823,509
41082869,507
41092887,510
41102938,505
41112988,509
41123007,505
41133059,502
41143111,509
41153131,510
41163183,504
41173235,502
41183257,497
41193307,506
41203362,507
41213384,503
41223439,503
41233494,508
41243519,508
41253574,506
41263626,504
41273680,503
41283704,505
41293761,508
41303815,508
41313837,505
41323891,506
41333948,504
41343973,503
41354027,506
41364080,508
41374099,506
41384153,501
41394206,506
41404228,505
41414278,507
41424326,508
41434343,503
41444393,505
41454443,511
41464461,507
41474509,508
41484559,519
41494606,521
41504626,527
41514673,528
41524720,530
41534736,522
41544781,529
41554829,527
41564845,520
41574893,524
41584944,514
41594961,510
41605010,507
41615057,512
41625076,504
41635125,503
41645171,500
41655187,508
41665235,501
41675284,508
41685303,503
41695353,506
41705403,496
41715422,504
41725475,500
41735528,508
41745579,505
41755599,504
41765647,506
41775698,510
41785718,509
41795768,511
41805818,510
41815836,510
41825881,504
41835927,503
41845945,504
41855987,507
41866032,505
41876048,506
41886096,502
41896143,507
41906158,508
41916208,508
41926259,508
41936282,504
41946336,502
41956386,507
41966405,502
41976454,508
41986507,503
41996557,510
42006576,507
42016623,508
42026668,502
42036683,506
42046733,501
42056779,503
42066798,506
42076847,505
42086897,503
42096913,509
42106965,509
42117018,508
42127037,509
42137088,504
42147139,504
42157156,501
42167201,508
42177247,508
42187264,502
42197312,506
42207356,498
42217368,503
42227413,506
42237455,508
42247497,508
42257509,515
42267551,517
42277595,526
42287608,529
42297655,527
42307701,522
42317716,527
42327760,523
42337803,526
42347816,523
42357859,514
42367903,516
42377916,509
42387960,510
42398004,508
42408015,509
42418058,508
42428101,506
42438117,506
42448161,504
42458207,500
42468225,504
42478273,506
42488318,506
42498363,504
42508381,506
42518428,504
42528473,503
42538491,510
42548538,503
42558585,511
42568603,512
42578642,503
42588684,506
42598699,513
42608744,511
42618791,508
42628808,503
42638854,506
42648899,508
42658913,502
42668955,506
42678996,509
42689009,506
42699053,508
42709098,504
42719113,499
42729156,508
42739200,503
42749213,505
42759256,510
42769302,506
42779344,508
42789359,504
42799402,506
42809447,508
42819462,503
42829509,502
42839560,508
42849586,508
42859639,511
42869686,505
42879700,509
42889744,499
42899788,507
42909799,506
42919842,499
42929890,506
42939908,495
42949956,500
42960005,505
42970023,507
42980073,512
42990119,512
43000137,514
43010182,515
43020226,520
43030270,522
43040285,526
43050327,527
43060373,530
43070387,528
43080434,523
43090479,526
43100495,520
43110540,521
43120588,515
43130607,512
43140654,512
43150702,511
43160719,505
43170764,508
43180811,502
43190829,501
43200876,500
43210927,503
43220946,503
43230996,505
43241048,508
43251101,504
43261120,501
43271170,501
43281221,507
43291237,510
43301290,512
43311340,514
43321360,513
43331410,512
43341459,512
43351475,512
43361524,509
43371571,506
43381588,509
43391636,507
43401685,508
43411703,506
43421750,508
43431801,510
43441818,507
43451866,508
43461914,507
43471929,499
43481977,501
43492030,500
43502050,503
43512103,504
43522156,501
43532204,505
43542218,502
43552263,506
43562311,506
43572331,507
43582378,505
43592424,505
43602437,499
43612485,499
43622533,508
43632549,507
43642598,500
43652647,500
43662663,511
43672708,506
43682755,500
43692771,507
43702815,508
43712862,510
43722877,514
43732924,512
43742973,517
43753019,523
43763033,522
43773081,528
43783128,526
43793143,524
43803192,525
43813238,524
43823254,520
43833303,515
43843355,515
43853373,511
43863421,512
43873467,507
43883482,506
43893532,499
43903579,502
43913598,503
43923644,503
43933691,502
43943710,502
43953760,506
43963809,504
43973826,502
43983872,496
43993919,502
44003935,506
44013986,508
44024039,506
44034091,503
44044113,509
44054164,506
44064215,509
44074236,509
44084282,511
44094327,509
44104342,507
44114393,509
44124448,511
44134470,509
44144532,505
44154595,501
44164625,505
44174685,501
44184741,506
44194768,497
44204827,498
44214880,500
44224901,503
44234953,500
44245003,500
44255053,501
44265072,506
44275125,500
44285178,507
44295198,503
44305251,506
44315304,504
44325325,501
44335377,503
44345430,503
44355452,507
44365501,501
44375554,505
44385576,507
44395631,505
44405688,512
44415710,508
44425763,512
44435815,512
44445838,513
44455892,517
44465948,524
44475971,520
44486024,525
44496074,526
44506095,530
44516147,521
44526198,530
44536251,518
44546269,520
44556318,518
44566367,516
44576386,516
44586436,510
44596482,504
44606496,506
44616542,503
44626588,507
44636604,507
44646652,502
44656701,500
44666719,502
44676767,503
44686814,505
44696830,505
44706876,505
44716924,500
44726943,509
44736990,507
44747038,503
44757055,503
44767103,509
44777150,514
44787201,503
44797222,502
44807274,508
44817324,503
44827344,499
44837396,504
44847446,501
44857464,501
44867513,501
44877567,505
44887589,508
44897640,498
44907691,505
44917711,505
44927758,508
44937808,504
44947829,507
44957878,507
44967926,509
44977943,504
44987990,509
44998038,504
45008057,508
45018107,503
45028155,507
45038205,503
45048226,504
45058275,509
45068325,500
45078345,505
45088397,509
45098450,509
45108469,503
45118518,504
45128567,501
45138587,509
45148637,507
45158689,506
45168709,508
45178760,515
45188812,513
45198832,517
45208883,526
45218935,520
45228954,524
45239005,524
45249055,525
45259077,520
45269132,515
45279183,516
45289236,520
45299258,509
45309309,513
45319360,515
45329379,513
45339430,511
45349481,504
45359502,506
45369556,508
45379609,502
45389629,506
45399681,497
45409733,499
45419754,500
45429803,505
45439853,507
45449874,504
45459923,510
45469966,508
45479983,507
45490030,506
45500078,511
45510097,509
45520147,511
45530197,508
45540248,509
45550264,510
45560310,503
45570360,507
45580378,503
45590424,506
45600471,508
45610491,502
45620539,499
45630589,503
45640609,508
45650660,505
45660709,500
45670728,504
45680777,499
45690825,500
45700841,509
45710886,503
45720937,499
45730956,500
45741005,510
45751053,499
45761066,500
45771114,502
45781162,507
45791208,501
45801222,500
45811267,504
45821312,511
45831324,507
45841371,508
45851417,509
45861435,507
45871483,510
45881529,508
45891547,503
45901595,504
45911645,506
45921663,501
45931712,508
45941762,504
45951779,507
45961828,517
45971877,516
45981894,518
45991946,525
46001997,525
46012017,530
46022070,529
46032118,530
46042167,521
46052184,520
46062234,520
46072281,514
46082300,520
46092350,516
46102397,508
46112415,505
46122467,507
46132517,506
46142535,510
46152583,504
46162629,504
46172649,502
46182699,507
46192748,507
46202770,508
46212824,503
46222877,507
46232899,502
46242952,509
46253003,503
46263025,503
46273078,512
46283129,505
46293182,510
46303206,511
46313259,510
46323311,511
46333332,508
46343384,507
46353433,504
46363446,505
46373493,507
46383543,506
46393560,503
46403607,500
46413656,508
46423675,507
46433722,502
46443772,508
46453789,510
46463839,506
46473889,505
46483906,505
46493956,506
46504004,506
46514052,505
46524071,508
46534125,506
46544174,505
46554197,506
46564251,507
46574300,507
46584322,508
46594376,504
46604427,503
46614449,507
46624503,501
46634554,505
46644573,510
46654623,505
46664671,496
46674689,504
46684736,508
46694784,508
46704800,509
46714844,505
46724892,510
46734909,503
46744955,511
46755002,505
46765050,512
46775067,522
46785116,518
46795162,525
46805172,528
46815219,526
46825266,524
46835280,527
46845326,520
46855376,522
46865392,517
46875439,514
46885485,517
46895503,514
46905550,510
46915594,508
46925608,504
46935655,510
46945705,500
46955723,501
46965770,507
46975819,500
46985837,506
46995885,506
47005936,508
47015953,507
47026001,507
47036052,512
47046103,506
47056119,508
47066167,511
47076211,507
47086227,509
47096270,511
47106315,507
47116328,508
47126374,506
47136419,504
47146436,508
47156481,509
47166524,506
47176539,504
47186588,498
47196635,503
47206652,498
47216701,507
47226749,508
47236765,510
47246815,508
47256866,504
47266883,508
47276928,510
47286971,499
47297014,510
47307030,502
47317078,511
47327124,502
47337138,508
47347186,502
47357232,505
47367246,504
47377291,505
47387340,513
47397363,504
47407417,503
47417474,512
47427499,504
47437550,506
47447597,513
47457613,505
47467653,507
47477693,502
47487701,508
47497744,512
47507789,507
47517807,513
47527855,511
47537906,513
47547957,513
47557976,517
47568026,512
47578081,523
47588105,522
47598164,528
47608221,523
47618237,522
47628282,527
47638326,528
47648339,521
47658385,515
47668427,518
47678440,518
47688484,513
47698525,512
47708537,512
47718578,512
47728622,504
47738632,505
47748677,506
47758721,503
47768766,497
47778779,503
47788826,502
47798870,503
47808886,506
47818932,501
47828978,504
47838995,508
47849042,505
47859086,501
47869101,505
47879149,511
47889195,503
47899206,509
47909248,506
47919289,509
47929300,510
47939344,508
47949388,508
47959399,508
47969442,511
47979484,504
47989497,506
47999540,508
48009584,503
48019625,506
48029639,509
48039682,506
48049724,508
48059737,509
48069784,506
48079827,508
48089838,500
48099880,505
48109922,506
48119934,504
48129976,509
48140021,507
48150033,508
48160075,505
48170114,512
48180121,504
48190161,508
48200202,507
48210211,511
48220247,508
48230285,508
48240293,506
48250330,508
48260371,504
48270381,503
48280421,508
48290460,508
48300500,507
48310511,511
48320556,507
48330599,513
48340611,520
48350655,519
48360699,528
48370710,525
48380750,523
48390789,526
48400798,523
48410840,523
48420880,522
48430887,518
48440928,514
48450972,519
48460986,515
48471032,519
48481084,512
48491100,510
48501145,512
48511188,501
48521227,510
48531236,509
48541278,504
48551323,505
48561336,489
48571382,501
48581427,509
48591444,503
48601485,510
48611525,514
48621541,512
48631586,514
48641631,511
48651646,507
48661692,512
48671737,508
48681752,507
48691795,512
48701840,507
48711853,507
48721899,505
48731944,512
48741959,503
48752005,503
48762051,509
48772068,503
48782116,509
48792162,509
48802205,509
48812219,504
48822266,506
48832311,510
48842325,501
48852371,509
48862415,506
48872428,508
48882473,511
48892516,507
48902528,502
48912575,501
48922619,504
48932629,506
48942673,507
48952719,506
48962736,504
48972780,505
48982826,503
48992839,503
49002882,504
49012926,507
49022971,501
49032984,508
49043030,506
49053073,515
49063086,520
49073130,523
49083173,525
49093188,524
49103231,528
49113270,528
49123281,526
49133323,529
49143365,524
49153377,525
49163421,513
49173465,515
49183473,514
49193511,511
49203551,510
49213563,508
49223608,506
49233650,510
49243664,508
49253707,503
49263751,503
49273792,506
49283806,505
49293849,506
49303892,503
49313905,507
49323946,509
49333988,506
49343998,505
49354041,512
49364085,506
49374098,511
49384144,507
49394189,505
49404203,511
49414248,507
49424291,500
49434298,505
49444340,504
49454383,501
49464391,502
49474431,507
49484474,506
49494485,508
49504526,506
49514571,500
49524585,506
49534631,500
49544676,504
49554720,508
49564734,507
49574780,511
49584822,507
49594836,510
49604883,508
49614928,503
49624942,508
49634985,511
49645032,504
49655046,503
49665091,502
49675135,506
49685151,505
49695194,509
49705235,502
49715246,505
49725290,506
49735334,503
49745348,505
49755392,504
49765440,500
49775485,513
49785499,518
49795544,521
49805587,523
49815598,525
49825642,526
49835686,521
49845698,527
49855741,517
49865783,521
49875797,519
49885843,517
49895888,513
49905903,509
49915948,512
49925994,510
49936009,511
49946054,510
49956101,506
49966115,504
49976162,504
49986207,508
49996223,506
50006267,506
50016312,501
50026357,504
50036370,508
50046417,499
50056464,508
50066478,504
50076524,507
50086570,507
50096588,507
50106637,507
50116687,510
50126704,501
50136751,501
50146799,506
50156816,504
50166863,505
50176907,508
50186921,503
50196965,501
50207010,507
50217026,502
50227074,504
50237125,495
50247143,502
50257188,504
50267234,499
50277281,505
50287300,502
50297350,503
50307400,504
50317421,500
50327470,503
50337521,508
50347538,509
50357584,504
50367632,511
50377650,502
50387698,510
50397746,502
50407765,505
50417812,506
50427861,508
50437881,507
50447930,503
50457976,509
50467991,503
50478037,508
50488084,508
50498101,513
50508147,518
50518192,517
50528207,526
50538253,525
50548299,526
50558342,526
50568356,524
50578399,527
50588442,525
50598456,526
50608499,515
50618544,521
50628557,514
50638601,512
50648644,507
50658658,507
50668705,501
50678753,505
50688766,498
50698809,502
50708851,506
50718863,508
50728903,499
50738948,505
50748961,508
50759006,508
50769047,508
50779089,501
50789101,502
50799146,510
50809191,511
50819206,507
50829252,512
50839297,508
50849311,505
50859360,504
50869403,505
50879418,504
50889467,506
50899514,504
50909533,508
50919586,507
50929638,499
50939658,501
50949709,506
50959764,507
50969784,503
50979830,506
50989876,500
50999894,509
51009942,506
51019988,506
51030035,507
51040052,506
51050095,505
51060140,509
51070155,505
51080201,510
51090245,507
51100261,503
51110307,506
51120353,503
51130366,503
51140413,506
51150459,504
51160475,504
51170523,507
51180569,501
51190583,498
51200631,504
51210678,501
51220694,504
51230741,499
51240790,510
51250808,517
51260860,518
51270909,523
51280929,526
51290977,526
51301021,523
51311067,527
51321083,529
51331132,523
51341181,529
51351198,518
51361243,521
51371290,521
51381303,519
51391345,510
51401390,511
51411404,509
51421451,510
51431496,507
51441511,505
51451554,499
51461597,500
51471610,505
51481657,506
51491703,499
51501722,503
51511769,503
51521816,506
51531866,505
51541883,504
51551931,505
51561979,501
51571991,508
51582039,508
51592086,509
51602104,510
51612153,502
51622201,507
51632218,506
51642265,507
51652313,501
51662328,502
51672376,508
51682427,504
51692447,501
51702496,506
51712547,501
51722564,506
51732611,503
51742661,498
51752678,507
51762725,506
51772773,497
51782825,501
51792844,500
51802895,501
51812945,503
51822965,511
51833017,500
51843063,505
51853078,505
51863130,508
51873178,508
51883198,508
51893249,507
51903300,506
51913319,503
51923372,504
51933425,508
51943446,505
51953494,509
51963541,505
51973555,505
51983601,505
51993649,506
52003674,500
52013735,506
52023792,514
52033811,509
52043858,513
52053908,522
52063959,528
52073981,530
52084033,531
52094085,522
52104103,523
52114154,522
52124204,522
52134222,517
52144272,518
52154322,515
52164340,511
52174382,509
52184428,508
52194445,504
52204493,506
52214540,504
52224558,508
52234607,505
52244656,497
52254674,502
52264722,503
52274769,506
52284817,502
52294832,504
52304881,504
52314929,501
52324942,506
52334989,503
52345036,501
52355050,506
52365096,503
52375146,501
52385171,509
52395227,506
52405280,507
52415304,504
52425361,503
52435415,504
52445434,502
52455483,505
52465529,500
52475541,504
52485587,500
52495630,504
52505642,504
52515685,503
52525730,503
52535746,506
52545788,506
52555833,502
52565879,503
52575894,506
52585941,506
52595989,502
52606007,500
52616054,505
52626105,508
52636127,504
52646178,509
52656227,504
52666245,507
52676295,506
52686346,507
52696361,503
52706407,505
52716453,499
52726469,508
52736520,506
52746567,499
52756579,500
52766622,501
52776670,505
52786718,502
52796734,501
52806784,501
52816833,500
52826852,497
52836903,505
52846959,507
52856979,510
52867032,510
52877082,513
52887101,515
52897150,526
52907200,525
52917217,535
52927265,536
52937308,530
52947323,530
52957370,531
52967416,529
52977434,521
52987484,520
52997531,519
53007548,516
53017597,512
53027645,510
53037693,502
53047709,501
53057756,500
53067805,500
53077821,505
53087868,503
53097918,495
53107937,499
53117986,498
53128035,500
53138051,503
53148097,507
53158145,504
53168163,502
53178212,503
53188262,507
53198282,505
53208330,506
53218374,503
53228389,507
53238437,506
53248483,507
53258499,506
53268546,502
53278592,502
53288635,503
53298648,508
53308689,503
53318729,502
53328742,499
53338784,502
53348825,508
53358836,505
53368877,504
53378919,509
53388930,501
53398972,501
53409015,505
53419024,507
53429065,503
53439109,499
53449120,508
53459161,501
53469206,510
53479219,507
53489262,501
53499307,508
53509323,508
53519368,506
53529416,510
53539428,510
53549475,505
53559520,507
53569566,507
53579582,509
53589629,503
53599674,508
53609690,506
53619735,500
53629777,503
53639790,500
53649836,503
53659884,507
53669898,507
53679942,504
53689990,505
53700006,504
53710055,509
53720101,512
53730116,513
53740167,522
53750216,522
53760236,522
53770286,527
53780339,529
53790391,533
53800412,530
53810462,530
53820513,529
53830533,522
53840583,522
53850631,515
53860649,518
53870698,516
53880751,506
53890770,508
53900817,504
53910864,505
53920882,507
53930929,502
53940976,503
53950988,509
53961037,506
53971088,499
53981104,503
53991154,504
54001204,505
54011225,511
54021274,511
54031324,507
54041376,507
54051396,511
54061447,512
54071496,509
54081513,510
54091562,507
54101612,503
54111632,509
54121684,510
54131734,508
54141752,508
54151802,503
54161851,509
54171870,510
54181918,508
54191967,505
54201988,505
54212037,506
54222088,507
54232105,508
54242150,506
54252195,505
54262215,508
54272265,504
54282317,506
54292345,507
54302405,509
54312461,503
54322519,503
54332546,501
54342601,501
54352658,500
54362684,507
54372735,507
54382784,511
54392799,510
54402844,509
54412890,510
54422906,507
54432953,509
54443000,515
54453017,509
54463063,509
54473108,504
54483127,506
54493173,505
54503219,507
54513234,506
54523278,508
54533321,510
54543336,504
54553384,503
54563430,511
54573479,510
54583496,516
54593543,522
54603592,526
54613609,525
54623657,531
54633704,532
54643722,532
54653773,536
54663826,527
54673849,523
54683901,530
54693952,527
54703978,514
54714027,518
54724076,512
54734094,508
54744142,506
54754189,503
54764207,503
54774252,505
54784295,501
54794305,501
54804344,504
54814385,505
54824425,503
54834435,501
54844477,506
54854519,509
54864532,511
54874577,506
54884621,514
54894634,511
54904678,511
54914721,507
54924735,513
54934779,510
54944822,509
54954836,507
54964880,512
54974928,511
54984944,506
54994990,503
55005036,505
55015052,504
55025100,500
55035147,501
55045195,510
55055211,507
55065256,508
55075305,512
55085321,503
55095367,508
55105415,508
55115427,508
55125473,506
55135516,511
55145530,506
55155576,506
55165619,508
55175634,505
55185678,503
55195725,504
55205741,504
55215787,508
55225836,511
55235851,502
55245896,504
55255941,508
55265954,506
55275999,506
55286047,507
55296094,505
55306111,509
55316157,509
55326205,508
55336221,509
55346266,505
55356309,502
55366325,509
55376370,502
55386418,508
55396434,506
55406479,502
55416530,508
55426547,513
55436594,510
55446640,518
55456657,522
55466707,519
55476757,530
55486773,529
55496823,532
55506868,527
55516882,524
55526927,520
55536971,520
55547014,518
55557027,514
55567069,515
55577113,514
55587128,510
55597176,508
55607221,503
55617233,506
55627275,500
55637318,505
55647332,499
55657374,498
55667416,499
55677427,506
55687472,505
55697515,507
55707530,509
55717573,502
55727618,507
55737634,511
55747676,506
55757720,509
55767732,505
55777776,511
55787819,503
55797816,514
55807865,510
55817911,507
55827959,506
55837977,503
55848024,505
55858070,505
55868086,499
55878132,501
55888175,507
55898187,506
55908231,499
55918274,506
55928289,509
55938337,505
55948384,511
55958398,508
55968443,504
55978490,506
55988506,502
55998555,505
56008601,511
56018605,507
56028660,503
56038705,505
56048708,511
56058767,510
56068816,512
56078862,509
56088878,506
56098922,509
56108968,503
56118983,509
56129033,504
56139079,508
56149093,503
56159141,509
56169187,510
56179204,509
56189252,505
56199300,511
56209314,517
56219361,521
56229412,523
56239418,521
56249477,531
56259522,528
56269527,526
56279590,525
56289642,522
56299657,521
56309723,524
56319776,512
56329825,516
56339842,516
56349888,516
56359935,508
56369951,505
56379995,508
56390041,505
56400056,501
56410100,509
56420143,505
56430158,501
56440208,506
56450255,499
56460259,507
56470320,507
56480365,509
56490368,510
56500426,513
56510476,507
56520484,508
56530542,512
56540593,513
56550647,510
56560671,511
56570721,513
56580772,506
56590790,506
56600838,511
56610884,507
56620896,507
56630939,501
56640983,503
56650997,502
56661045,509
56671092,507
56681096,499
56691155,499
56701203,506
56711208,505
56721266,507
56731311,505
56741317,508
56751376,503
56761425,505
56771432,504
56781490,507
56791538,507
56801549,506
56811602,508
56821647,506
56831693,511
56841710,511
56851758,510
56861804,507
56871819,505
56881868,506
56891915,511
56901919,512
56911975,511
56922020,515
56932023,513
56942078,522
56952121,525
56962121,528
56972177,527
56982222,525
56992228,528
57002283,528
57012333,522
57022345,526
57032399,521
57042446,519
57052488,522
57062503,515
57072549,513
57082592,513
57092605,513
57102647,509
57112691,505
57122692,506
57132748,505
57142791,504
57152795,506
57162849,503
57172891,506
57182894,506
57192949,502
57202993,504
57212999,506
57223052,504
57233092,510
57243099,503
57253152,508
57263196,510
57273205,509
57283255,505
57293302,508
57303345,505
57313356,504
57323398,501
57333443,509
57343444,508
57353500,505
57363545,504
57373547,505
57383604,505
57393650,500
57403654,509
57413713,507
57423760,506
57433766,501
57443818,506
57453868,507
57463877,501
57473933,508
57483980,502
57493994,510
57504047,510
57514095,503
57524106,502
57534155,498
57544200,504
57554246,502
57564247,506
57574305,498
57584350,502
57594353,501
57604409,505
57614456,503
57624461,506
57634518,509
57644562,505
57654568,512
57664621,515
57674665,519
57684673,519
57694724,526
57704768,530
57714774,530
57724824,531
57734867,529
57744874,522
57754920,520
57764965,521
57774970,518
57785011,520
57795067,516
57805113,512
57815115,510
57825169,507
57835214,503
57845217,511
57855272,509
57865316,504
57875321,506
57885374,499
57895418,501
57905424,499
57915474,504
57925518,508
57935525,502
57945571,503
57955616,503
57965624,501
57975669,506
57985714,509
57995718,509
58005760,511
58015818,509
58025818,508
58035871,501
58045931,502
58055977,505
58065979,503
58076035,504
58086081,503
58096088,504
58106147,501
58116195,503
58126210,506
58136271,507
58146324,506
58156339,508
58166393,508
58176441,505
58186455,508
58196508,508
58206557,503
58216566,504
58226611,506
58236672,505
58246675,502
58256729,506
58266793,508
58276797,508
58286852,505
58296913,509
58306916,508
58316973,503
58327033,505
58337085,507
58347099,502
58357157,500
58367206,503
58377219,508
58387278,508
58397329,502
58407344,513
58417399,515
58427451,519
58437466,526
58447514,527
58457578,530
58467584,525
58477643,523
58487704,527
58497707,530
58507763,520
58517825,521
58527831,519
58537886,512
58547947,517
58558000,511
58568015,512
58578067,510
58588112,503
58598120,506
58608171,502
58618222,505
58628238,502
58638290,501
58648341,508
58658347,504
58668388,506
58678447,510
58688447,509
58698496,508
58708552,507
58718554,504
58728607,509
58738667,508
58748669,504
58758722,507
58768776,510
58778778,503
58788830,508
58798885,504
58808933,500
58818940,504
58828995,506
58839045,504
58849062,504
58859115,506
58869165,507
58879174,505
58889220,502
58899280,499
58909277,504
58919324,508
58929380,508
58939378,502
58949428,504
58959482,506
58969482,499
58979536,499
58989590,501
58999593,498
59009648,504
59019703,507
59029708,504
59039759,505
59049814,506
59059825,499
59069878,507
59079930,504
59089978,501
59099983,507
59110030,507
59120088,505
59130081,503
59140129,507
59150186,501
59160185,504
59170235,506
59180292,499
59190294,509
59200347,506
59210402,518
59220407,520
59230461,525
59240516,528
59250524,528
59260579,532
59270634,527
59280642,528
59290694,528
59300741,527
59310751,521
59320790,522
59330839,513
59340898,510
59350898,511
59360949,511
59371005,510
59381005,509
59391056,509
59401111,504
59411109,509
59421161,505
59431212,500
59441212,504
59451264,509
59461318,499
59471322,506
59481374,504
59491428,508
59501433,508
59511484,505
59521535,512
59531544,510
59541582,510
59551632,511
59561686,514
59571680,509
59581729,511
59591783,511
59601779,507
59611825,507
59621878,510
59631874,509
59641922,506
59651973,503
59661973,504
59672024,504
59682074,504
59692078,502
59702130,503
59712185,509
59722193,508
59732245,506
59742296,504
59752307,508
59762348,502
59772398,496
59782418,509
59792455,509
59802505,511
59812527,504
59822562,507
59832613,500
59842670,507
59852675,509
59862732,501
59872790,500
59882793,509
59892849,501
59902904,507
59912908,508
59922961,505
59933012,504
59943019,506
59953071,508
59963124,505
59973134,500
59983177,508
59993227,510
60003251,513
60013290,518
60023344,519
60033370,518
60043409,528
60053463,527
60063518,526
60073516,527
60083569,525
60093622,526
60103623,526
60113673,519
60123725,520
60133728,516
60143779,516
60153831,516
60163834,506
60173883,511
60183931,504
60193936,507
60203976,500
60214018,503
60224041,502
60234079,504
60244134,508
60254157,498
60264196,502
60274247,501
60284274,507
60294313,511
60304373,505
60314400,509
60324442,511
60334497,508
60344556,512
60354568,503
60364627,508
60374683,507
60384696,508
60394753,510
60404808,508
60414822,503
60424865,504
60434918,502
60444942,505
60454978,506
60465035,508
60475063,505
60485104,502
60495158,505
60505183,506
60515219,501
60525272,503
60535298,501
60545340,506
60555404,509
60565468,499
60575482,499
60585537,506
60595591,506
60605600,506
60615652,508
60625703,507
60635715,509
60645756,509
60655805,505
60665827,508
60675865,508
60685921,500
60695945,503
60705982,505
60716037,507
60726061,508
60736097,508
60746149,509
60756173,506
60766214,506
60776267,506
60786289,511
60796326,508
60806381,506
60816404,510
60826441,512
60836490,514
60846543,518
60856550,523
60866589,526
60876639,528
60886660,529
60896698,537
60906751,538
60916773,529
60926804,527
60936855,528
60946877,529
60956914,521
60966966,513
60976986,522
60987021,514
60997077,508
61007100,507
61017135,513
61027183,502
61037202,504
61047240,507
61057293,508
61067343,500
61077355,508
61087394,506
61097445,501
61107464,511
61117498,509
61127548,513
61137569,513
61147603,512
61157652,506
61167673,512
61177705,507
61187758,512
61197778,505
61207808,510
61217858,512
61227878,514
61237912,509
61247960,513
61257978,505
61268012,511
61278059,509
61288079,512
61298116,512
61308153,504
61318178,507
61328214,506
61338246,510
61348300,509
61358322,507
61368355,507
61378404,508
61388424,509
61398455,510
61408503,504
61418527,500
61428562,508
61438612,508
61448630,506
61458661,504
61468711,500
61478730,507
61488765,500
61498815,509
61508832,505
61518865,504
61528899,508
61538931,504
61548969,500
61559005,508
61569062,499
61579084,507
61589117,506
61599166,506
61609185,507
61619217,507
61629269,504
61639289,504
61649328,513
61659385,507
61669408,517
61679445,517
61689499,522
61699522,529
61709561,526
61719618,534
61729644,532
61739681,536
61749718,532
61759753,533
61769795,527
61779837,528
61789880,517
61799922,517
61809961,515
61819999,514
61830041,512
61840079,512
61850132,509
61860156,508
61870195,508
61880249,509
61890273,509
61900309,505
61910362,504
61920390,507
61930429,504
61940484,501
61950510,509
61960555,500
61970599,508
61980637,511
61990681,511
62000722,509
62010766,511
62020808,504
62030850,510
62040895,509
62050935,502
62060974,509
62071030,507
62081056,504
62091094,502
62101151,503
62111176,508
62121214,505
62131268,500
62141292,505
62151331,509
62161387,507
62171414,505
62181454,502
62191494,506
62201531,506
62211575,498
62221616,506
62231659,505
62241700,507
62251736,499
62261777,507
62271813,502
62281849,506
62291885,503
62301924,508
62311961,505
62322014,506
62332038,505
62342076,504
62352130,503
62362154,504
62372192,503
62382245,503
62392266,505
62402301,501
62412340,508
62422376,509
62432415,507
62442455,498
62452494,498
62462531,510
62472570,511
62482609,513
62492649,517
62502685,522
62512723,527
62522760,529
62532794,521
62542829,523
62552868,523
62562904,526
62572958,523
62582984,516
62593022,513
62603074,518
62613098,508
62623138,504
62633176,505
62643211,510
62653246,500
62663278,506
62673312,506
62683348,504
62693385,504
62703424,497
62713462,504
62723499,502
62733536,504
62743571,506
62753607,508
62763643,506
62773677,505
62783710,507
62793743,507
62803779,504
62813815,510
62823862,504
62833878,506
62843915,508
62853951,502
62863984,504
62874021,510
62884056,504
62894092,501
62904129,503
62914162,499
62924196,503
62934231,500
62944263,506
62954296,508
62964325,502
62974357,505
62984390,509
62994424,492
63004458,498
63014491,504
63024526,499
63034565,502
63044598,500
63054629,511
63064657,512
63074691,504
63084719,511
63094753,511
63104782,508
63114813,510
63124848,502
63134884,511
63144920,510
63154957,513
63164992,509
63175026,506
63185061,506
63195093,507
63205125,506
63215156,505
63225185,505
63235219,500
63245254,509
63255289,507
63265325,514
63275363,520
63285400,522
63295435,530
63305468,528
63315502,529
63325537,530
63335575,530
63345607,521
63355638,520
63365669,522
63375701,520
63385733,514
63395767,513
63405799,505
63415831,506
63425862,508
63435899,506
63445934,501
63455971,500
63466006,502
63476043,506
63486076,502
63496112,511
63506146,502
63516180,504
63526215,504
63536251,507
63546291,510
63556331,510
63566368,505
63576405,512
63586446,508
63596488,510
63606527,508
63616575,511
63626623,511
63636667,501
63646712,506
63656753,500
63666787,499
63676824,503
63686860,507
63696894,504
63706929,497
63716965,502
63726998,503
63737028,504
63747060,506
63757094,503
63767128,502
63777162,499
63787193,506
63797224,506
63807257,505
63817288,499
63827313,505
63837343,510
63847377,503
63857409,510
63867443,509
63877480,509
63887513,512
63897548,502
63907584,508
63917617,508
63927651,512
63937689,509
63947727,505
63957767,505
63967805,508
63977842,508
63987879,508
63997915,506
64007951,508
64017985,513
64028019,513
64038054,508
64048089,516
64058123,522
64068159,528
64078198,526
64088237,528
64098273,524
64108311,527
64118352,530
64128386,524
64138422,526
64148461,525
64158495,522
64168532,515
64178565,516
64188600,516
64198640,512
64208678,513
64218717,504
64228753,509
64238787,503
64248823,506
64258860,505
64268894,505
64278927,503
64288963,503
64298994,509
64309030,505
64319066,505
64329098,510
64339132,511
64349167,507
64359200,510
64369234,510
64379269,507
64389299,508
64399329,508
64409364,506
64419400,509
64429435,508
64439472,509
64449508,507
64459542,507
64469572,508
64479607,502
64489640,501
64499673,503
64509714,504
64519753,505
64529794,509
64539838,509
64549879,505
64559924,507
64569966,503
64579999,503
64590038,510
64600075,510
64610112,510
64620149,500
64630186,504
64640223,507
64650258,504
64660297,498
64670336,509
64680368,504
64690404,510
64700440,508
64710475,500
64720508,504
64730540,506
64740569,507
64750606,501
64760646,501
64770680,501
64780720,503
64790757,503
64800791,508
64810830,504
64820865,502
64830899,514
64840936,516
64850973,508
64861011,522
64871046,528
64881083,532
64891119,533
64901156,533
64911190,531
64921221,529
64931251,529
64941284,520
64951320,517
64961354,516
64971392,510
64981430,517
64991465,511
65001506,506
65011547,500
65021579,506
65031619,508
65041656,507
65051686,506
65061728,500
65071765,504
65081800,502
65091835,498
65101870,504
65111906,508
65121938,510
65131973,509
65142011,508
65152045,503
65162082,513
65172120,505
65182154,507
65192192,511
65202229,508
65212258,504
65222294,504
65232328,503
65242358,510
65252398,508
65262437,506
65272472,508
65282514,506
65292553,506
65302584,507
65312630,502
65322667,504
65332708,503
65342749,508
65352788,504
65362829,506
65372869,505
65382905,503
65392944,505
65402979,510
65413015,508
65423052,499
65433085,504
65443124,502
65453162,501
65463196,501
65473237,507
65483274,507
65493304,509
65503344,507
65513389,508
65523421,504
65533467,504
65543505,509
65553533,505
65563581,503
65573617,510
65583648,508
65593695,503
65603730,505
65613767,501
65623800,501
65633836,509
65643870,501
65653899,509
65663935,514
65673972,517
65684004,520
65694044,520
65704076,521
65714103,529
65724144,535
65734180,529
65744210,533
65754254,532
65764291,528
65774321,518
65784367,521
65794408,514
65804437,509
65814482,511
65824515,511
65834542,508
65844587,507
65854621,508
65864656,503
65874688,504
65884728,503
65894764,497
65904797,504
65914838,500
65924876,507
65934904,511
65944944,506
65954977,506
65965005,512
65975045,510
65985081,510
65995109,504
66005152,509
66015186,502
66025210,510
66035257,511
66045289,508
66055312,508
66065356,501
66075392,501
66085429,507
66095463,507
66105503,504
66115539,507
66125569,506
66135603,509
66145638,501
66155667,503
66165708,508
66175744,507
66185775,505
66195820,504
66205854,504
66215881,507
66225924,506
66235961,507
66245990,506
66256037,509
66266073,508
66276098,510
66286144,511
66296180,506
66306205,506
66316252,503
66326293,506
66336333,505
66346369,501
66356417,507
66366462,503
66376494,510
66386538,504
66396573,503
66406602,509
66416647,508
66426681,504
66436709,506
66446755,507
66456790,511
66466815,509
66476861,512
66486900,509
66496925,516
66506974,519
66517012,523
66527039,524
66537087,535
66547129,535
66557154,533
66567202,533
66577243,532
66587277,529
66597303,523
66607343,526
66617387,520
66627424,517
66637474,507
66647517,514
66657551,506
66667603,508
66677647,503
66687683,499
66697730,505
66707765,505
66717790,499
66727838,505
66737875,503
66747896,503
66757940,507
66767979,505
66778000,510
66788045,509
66798083,503
66808100,502
66818144,502
66828182,504
66838216,502
66848246,508
66858294,509
66868339,509
66878375,505
66888423,499
66898463,502
66908495,505
66918545,499
66928580,504
66938604,503
66948652,503
66958690,506
66968714,500
66978758,500
66988796,508
66998821,499
67008869,507
67018911,502
67028933,504
67038979,505
67049020,509
67059042,499
67069088,501
67079131,509
67089168,498
67099197,503
67109240,504
67119279,509
67129311,508
67139359,510
67149401,508
67159432,506
67169483,506
67179523,507
67189550,508
67199602,509
67209645,507
67219673,507
67229726,508
67239770,507
67249794,505
67259846,502
67269895,511
67279919,506
67289970,514
67300018,506
67310042,522
67320092,524
67330140,530
67340180,532
67350206,532
67360252,533
67370289,529
67380314,529
67390359,529
67400391,523
67410412,513
67420455,513
67430487,515
67440504,505
67450548,510
67460587,503
67470610,504
67480658,502
67490700,505
67500723,500
67510771,504
67520814,499
67530832,505
67540874,503
67550918,505
67560938,506
67570986,509
67581037,508
67591056,507
67601104,508
67611150,512
67621183,512
67631207,515
67641252,508
67651287,513
67661307,509
67671352,501
67681392,512
67691414,509
67701461,508
67711502,504
67721525,506
67731572,499
67741616,510
67751632,504
67761675,508
67771718,504
67781739,504
67791786,506
67801836,505
67811857,507
67821905,508
67831953,511
67841968,509
67852016,505
67862066,500
67872108,507
67882133,504
67892181,510
67902225,509
67912251,506
67922300,502
67932343,510
67942365,502
67952414,506
67962455,508
67972472,508
67982518,507
67992563,507
68002583,508
68012629,509
68022674,510
68032691,511
68042737,514
68052784,517
68062798,525
68072843,526
68082887,536
68092901,535
68102950,536
68112992,528
68123032,535
68133052,530
68143093,522
68153130,525
68163148,521
68173193,523
68183233,513
68193247,509
68203285,507
68213326,509
68223342,509
68233387,505
68243431,500
68253449,500
68263498,497
68273545,503
68283561,503
68293608,506
68303655,499
68313670,505
68323716,505
68333762,507
68343780,511
68353831,507
68363878,509
68373919,509
68383938,507
68393980,504
68404024,507
68414040,508
68424083,507
68434122,503
68444136,508
68454173,508
68464213,508
68474228,504
68484275,501
68494316,502
68504327,501
68514371,502
68524420,503
68534437,494
68544487,500
68554534,504
68564549,499
68574594,502
68584641,502
68594656,502
68604702,507
68614743,505
68624783,506
68634798,507
68644838,511
68654875,503
68664886,510
68674929,503
68684971,504
68694979,501
68705021,508
68715062,505
68725075,509
68735117,504
68745158,511
68755168,508
68765211,511
68775257,511
68785273,508
68795319,505
68805364,514
68815377,514
68825422,519
68835464,515
68845473,522
68855515,529
68865558,521
68875600,526
68885616,512
68895662,526
68905706,522
68915719,520
68925763,523
68935806,521
68945820,520
68955864,519
68965905,520
68975919,512
68985962,514
68996004,512
69006014,508
69016054,501
69026094,507
69036108,508
69046153,503
69056200,502
69066218,496
69076268,505
69086313,505
69096323,502
69106363,506
69116405,505
69126446,508
69136460,508
69146502,505
69156546,506
69166562,512
69176605,507
69186646,509
69196654,503
69206690,510
69216732,503
69226738,505
69236776,497
69246816,510
69256823,506
69266864,505
69276903,504
69286914,508
69296958,503
69307000,508
69317016,507
69327062,503
69337105,499
69347116,501
69357161,505
69367207,507
69377251,508
69387264,508
69397309,505
69407354,500
69417371,500
69427417,506
69437461,509
69447477,507
69457524,502
69467569,507
69477583,509
69487627,505
69497670,500
69507683,502
69517732,498
69527779,506
69537797,503
69547847,502
69557896,505
69567918,504
69577969,503
69588019,501
69598063,503
69608079,516
69618124,523
69628169,528
69638184,522
69648228,533
69658270,533
69668285,535
69678330,525
69688374,523
69698388,529
69708432,521
69718472,523
69728484,514
69738527,517
69748572,516
69758587,510
69768631,513
69778674,506
69788690,508
69798733,505
69808777,503
69818792,499
69828838,501
69838882,504
69848895,506
69858941,499
69868989,506
69879035,503
69889050,508
69899093,510
69909138,507
69919151,512
69929193,510
69939238,513
69949250,503
69959291,510
69969332,508
69979352,508
69989403,510
69999453,503
70009464,501
70019507,506
70029552,505
70039570,506
70049619,504
70059665,507
70069675,502
70079720,507
70089764,504
70099778,506
70109823,507
70119867,502
70129911,499
70139928,509
70149971,506
70160015,504
70170024,507
70180067,504
70190108,504
70200119,503
70210161,508
70220201,506
70230212,502
70240252,507
70250290,503
70260298,506
70270338,507
70280379,503
70290392,507
70300435,503
70310477,508
70320486,508
70330524,504
70340564,503
70350607,510
70360619,507
70370659,499
70380698,505
70390712,511
70400757,514
70410799,514
70420809,522
70430849,528
70440890,531
70450900,525
70460940,533
70470980,527
70480991,532
70491031,525
70501066,530
70511076,525
70521116,521
70531156,519
70541163,515
70551202,517
70561238,514
70571244,513
70581282,510
70591321,507
70601363,505
70611375,508
70621419,505
70631464,505
70641473,505
70651512,496
70661551,499
70671561,505
70681602,506
70691644,507
70701654,506
70711690,504
70721726,505
70731736,505
70741776,507
70751814,505
70761827,510
70771868,507
70781906,511
70791916,500
70801954,507
70811992,505
70821998,505
70832031,505
70842064,506
70852071,509
70862110,504
70872149,500
70882191,504
70892201,508
70902238,507
70912278,501
70922288,507
70932327,506
70942368,508
70952379,492
70962419,503
70972462,503
70982474,507
70992516,506
71002559,506
71012570,507
71022613,504
71032658,506
71042670,501
71052712,504
71062757,506
71072769,504
71082809,503
71092850,510
71102861,509
71112902,512
71122944,508
71132988,505
71142997,507
71153039,502
71163081,505
71173093,512
71183134,513
71193175,514
71203186,517
71213228,514
71223272,520
71233286,530
71243327,531
71253370,532
71263384,529
71273426,523
71283469,533
71293480,523
71303522,516
71313566,522
71323578,513
71333619,515
71343661,511
71353675,516
71363721,509
71373764,510
71383807,500
71393820,507
71403861,504
71413902,504
71423914,505
71433956,504
71444000,503
71454012,501
71464054,500
71474097,506
71484109,506
71494150,506
71504189,501
71514199,506
71524240,508
71534279,512
71544291,510
71554333,507
71564375,509
71574384,510
71584423,504
71594460,502
71604463,505
71614497,508
71624533,501
71634566,508
71644572,509
71654617,504
71664663,503
71674671,506
71684706,504
71694745,503
71704752,503
71714789,504
71724829,502
71734841,503
71744885,497
71754930,508
71764940,506
71774982,504
71785025,505
71795039,507
71805082,508
71815127,501
71825141,507
71835183,504
71845223,506
71855262,503
71865272,507
71875312,504
71885353,504
71895364,506
71905404,501
71915444,509
71925456,502
71935496,499
71945539,506
71955550,511
71965588,507
71975627,507
71985638,508
71995677,507
72005718,505
72015730,511
72025771,513
72035812,519
72045824,516
72055866,524
72065906,527
72075914,528
72085956,525
72095995,529
72106004,529
72116044,527
72126084,529
72136123,523
72146133,523
72156177,521
72166219,514
72176233,512
72186275,505
72196317,508
72206332,508
72216377,507
72226422,503
72236436,497
72246476,499
72256517,500
72266530,499
72276571,502
72286611,504
72296620,506
72306665,500
72316708,503
72326722,507
72336764,508
72346806,503
72356818,510
72366860,504
72376905,509
72386952,502
72396964,506
72407008,513
72417053,503
72427066,503
72437111,506
72447156,502
72457176,499
72467229,503
72477279,499
72487298,503
72497348,507
72507399,507
72517421,508
72527470,504
72537520,505
72547541,507
72557593,501
72567644,506
72577664,506
72587713,509
72597758,507
72607767,501
72617807,506
72627851,503
72637898,505
72647914,507
72657960,510
72668008,508
72678023,510
72688069,504
72698109,503
72708119,507
72718158,503
72728195,503
72738205,507
72748249,505
72758292,505
72768302,501
72778343,507
72788384,505
72798395,506
72808441,499
72818492,503
72828515,507
72838565,505
72848613,509
72858659,508
72868677,515
72878725,506
72888773,510
72898789,522
72908839,507
72918886,526
72928901,524
72938947,525
72948989,534
72958997,523
72969044,531
72979089,524
72989108,516
72999158,516
73009204,517
73019220,513
73029269,514
73039315,502
73049333,506
73059381,505
73069428,506
73079442,507
73089488,500
73099532,504
73109578,496
73119594,503
73129644,502
73139694,505
73149713,505
73159762,506
73169807,501
73179821,502
73189874,511
73199928,512
73209952,503
73220006,508
73230058,502
73240075,505
73250120,507
73260167,508
73270183,507
73280231,509
73290276,500
73300287,505
73310332,502
73320375,502
73330386,503
73340432,505
73350477,505
73360490,499
73370534,498
73380579,496
73390625,501
73400642,502
73410692,502
73420742,502
73430759,503
73440805,503
73450850,504
73460868,503
73470913,507
73480957,484
73490970,502
73501010,501
73511055,503
73521068,506
73531114,512
73541159,507
73551172,508
73561212,508
73571260,506
73581274,505
73591319,506
73601362,509
73611405,507
73621414,501
73631457,506
73641501,501
73651516,498
73661564,503
73671609,500
73681623,497
73691669,504
73701716,505
73711732,511
73721776,513
73731820,512
73741838,517
73751886,520
73761934,526
73771953,519
73782000,527
73792047,519
73802062,520
73812104,511
73822147,514
73832158,510
73842202,511
73852247,506
73862292,507
73872310,506
73882355,506
73892399,503
73902421,498
73912466,501
73922509,501
73932523,499
73942569,500
73952615,498
73962628,507
73972671,507
73982717,513
73992731,510
74002778,511
74012828,515
74022847,514
74032890,509
74042934,508
74052949,514
74062998,504
74073043,511
74083059,507
74093106,506
74103154,510
74113169,503
74123215,508
74133261,509
74143306,510
74153318,499
74163364,506
74173409,505
74183423,508
74193469,501
74203515,508
74213530,501
74223575,508
74233619,508
74243630,508
74253679,506
74263725,510
74273739,505
74283786,508
74293833,510
74303851,506
74313896,506
74323941,505
74333958,510
74344007,509
74354054,506
74364066,510
74374110,512
74384154,510
74394198,501
74404214,503
74414261,511
74424310,507
74434326,507
74444377,505
74454427,506
74464447,505
74474495,510
74484542,503
74494555,507
74504603,503
74514654,506
74524672,512
74534721,509
74544772,518
74554792,518
74564840,526
74574886,529
74584903,531
74594951,535
74604998,533
74615043,527
74625061,525
74635109,522
74645157,523
74655175,523
74665221,516
74675264,515
74685281,507
74695327,507
74705372,505
74715390,509
74725437,498
74735483,508
74745499,506
74755542,501
74765587,499
74775602,503
74785648,504
74795696,509
74805712,508
74815759,509
74825804,507
74835821,513
74845868,510
74855914,516
74865938,506
74875995,510
74886054,511
74896112,506
74906133,506
74916183,511
74926232,509
74936253,506
74946303,500
74956352,502
74966368,503
74976414,498
74986459,503
74996476,498
75006524,506
75016574,503
75026592,501
75036641,502
75046691,491
75056710,505
75066762,501
75076812,506
75086831,509
75096883,500
75106934,511
75116951,512
75126999,508
75137049,508
75147097,503
75157113,512
75167160,509
75177206,512
75187224,514
75197271,512
75207319,509
75217335,509
75227381,505
75237430,501
75247446,508
75257493,511
75267536,504
75277546,507
75287591,510
75297639,500
75307653,508
75317700,504
75327745,512
75337761,512
75347809,513
75357858,517
75367872,527
75377918,527
75387967,525
75398014,530
75408027,529
75418076,526
75428122,524
75438136,515
75448179,521
75458225,518
75468242,515
75478288,517
75488334,512
75498347,509
75508391,505
75518434,512
75528446,512
75538489,505
75548537,507
75558553,503
75568602,508
75578648,505
75588666,508
75598716,511
75608765,509
75618813,505
75628831,511
75638880,508
75648928,509
75658945,511
75668994,503
75679044,502
75689062,510
75699112,509
75709161,512
75719180,513
75729228,507
75739277,504
75749298,508
75759350,507
75769403,503
75779425,503
75789476,505
75799526,505
75809546,506
75819594,505
75829645,508
75839664,505
75849713,508
75859765,509
75869816,512
75879832,507
75889879,508
75899928,510
75909945,505
75919995,507
75930041,506
75940058,510
75950107,509
75960157,501
75970175,508
75980225,507
75990274,508
76000292,509
76010339,504
76020388,506
76030403,499
76040451,503
76050502,507
76060523,506
76070570,502
76080619,501
76090639,499
76100690,507
76110742,509
76120762,509
76130810,504
76140859,514
76150902,512
76160920,520
76170973,517
76181026,517
76191048,529
76201097,516
76211146,520
76221163,524
76231212,522
76241262,525
76251279,524
76261327,520
76271375,518
76281396,513
76291445,515
76301495,495
76311516,499
76321569,505
76331625,503
76341651,499
76351702,510
76361753,505
76371773,508
76381821,507
76391870,500
76401921,504
76411941,503
76421991,500
76432044,506
76442065,509
76452114,507
76462163,506
76472183,511
76482237,508
76492288,509
76502309,511
76512362,507
76522416,510
76532438,505
76542489,502
76552542,505
76562562,501
76572612,501
76582664,506
76592684,508
76602734,507
76612787,500
76622807,504
76632857,507
76642906,508
76652955,506
76662972,505
76673023,509
76683071,507
76693090,511
76703138,504
76713186,508
76723203,509
76733250,509
76743298,506
76753313,509
76763360,510
76773407,503
76783428,508
76793481,502
76803526,511
76813542,508
76823586,505
76833632,510
76843644,503
76853689,501
76863734,502
76873746,509
76883788,501
76893832,506
76903876,510
76913890,508
76923936,505
76933986,514
76944003,516
76954049,514
76964095,520
76974111,525
76984159,521
76994207,527
77004225,528
77014270,523
77024316,525
77034332,523
77044378,523
77054424,514
77064441,515
77074487,510
77084531,515
77094547,507
77104591,499
77114637,500
77124654,505
77134700,505
77144743,503
77154789,505
77164805,504
77174845,501
77184886,504
77194899,507
77204946,505
77214992,504
77225006,505
77235049,509
77245092,513
77255104,506
77265149,510
77275192,509
77285209,502
77295253,508
77305296,510
77315308,508
77325349,508
77335388,503
77345392,510
77355430,507
77365471,506
77375510,501
77385520,497
77395562,504
77405608,505
77415625,510
77425668,502
77435710,509
77445723,510
77455766,509
77465811,510
77475824,510
77485866,513
77495913,513
77505927,511
77515971,511
77526012,511
77536024,511
77546070,500
77556114,506
77566126,504
77576167,508
77586209,503
77596222,504
77606265,505
77616309,508
77626352,509
77636366,510
77646408,507
77656452,506
77666466,506
77676511,504
77686554,511
77696568,504
77706614,511
77716659,515
77726674,510
77736718,519
77746761,524
77756778,529
77766832,530
77776880,528
77786893,524
77796937,522
77806980,521
77816995,525
77827042,524
77837086,521
77847101,513
77857143,513
77867185,506
77877227,508
77887241,503
77897287,499
77907336,508
77917353,507
77927399,505
77937444,504
77947460,506
77957507,500
77967550,507
77977564,509
77987607,504
77997650,507
78007664,501
78017709,506
78027756,505
78037771,512
78047816,506
78057861,507
78067878,509
78077923,510
78087971,513
78097988,512
78108035,509
78118082,509
78128100,511
78138148,509
78148193,501
78158241,502
78168260,501
78178306,508
78188353,508
78198368,509
78208412,505
78218455,508
78228469,504
78238513,510
78248553,510
78258567,503
78268613,506
78278656,508
78288669,509
78298714,508
78308756,507
78318767,503
78328809,505
78338855,509
78348867,508
78358906,507
78368945,511
78378983,506
78388996,509
78399042,510
78409088,507
78419103,510
78429150,504
78439194,511
78449206,507
78459250,505
78469295,506
78479311,511
78489357,509
78499405,509
78509427,520
78519481,513
78529529,523
78539545,527
78549590,529
78559635,531
78569651,528
78579697,526
78589748,529
78599766,524
78609813,523
78619857,522
78629903,517
78639917,516
78649962,515
78660006,509
78670020,513
78680067,512
78690111,506
78700127,506
78710171,501
78720211,506
78730226,510
78740272,505
78750316,509
78760331,504
78770373,506
78780414,502
78790422,506
78800463,509
78810502,513
78820512,512
78830549,507
78840589,510
78850597,510
78860638,508
78870683,504
78880698,511
78890739,513
78900775,508
78910815,507
78920831,506
78930880,504
78940930,505
78950948,507
78960999,508
78971050,504
78981071,505
78991121,510
79001174,508
79011197,511
79021245,507
79031300,509
79041324,510
79051373,503
79061425,508
79071449,508
79081505,509
79091559,505
79101583,504
79111639,505
79121695,505
79131716,502
79141773,507
79151829,509
79161886,509
79171913,506
79181967,508
79192017,508
79202035,510
79212087,506
79222141,505
79232166,508
79242222,502
79252279,504
79262303,500
79272358,502
79282412,500
79292434,497
79302486,503
79312535,508
79322557,509
79332610,518
79342662,525
79352680,528
79362722,523
79372766,529
79382779,534
79392822,526
79402865,528
79412907,528
79422924,517
79432969,519
79443015,515
79453031,510
79463075,515
79473121,508
79483138,507
79493183,508
79503227,500
79513245,503
79523292,503
79533337,488
79543349,496
79553392,504
79563437,504
79573452,498
79583496,498
79593544,506
79603563,508
79613607,511
79623653,510
79633696,507
79643711,512
79653758,514
79663805,510
79673821,507
79683868,507
79693911,512
79703924,507
79713969,505
79724014,505
79734026,505
79744071,507
79754115,503
79764133,507
79774178,505
79784225,501
79794240,507
79804285,499
79814331,500
79824345,509
79834388,507
79844433,502
79854440,501
79864496,501
79874541,508
79884583,508
79894598,504
79904644,506
79914690,509
79924707,504
79934753,506
79944803,508
79954821,509
79964868,506
79974915,511
79984930,507
79994977,503
80005023,508
80015042,502
80025082,507
80035123,507
80045137,507
80055185,509
80065233,507
80075239,503
80085298,510
80095348,501
80105359,505
80115414,513
80125464,512
80135510,518
80145526,521
80155572,524
80165621,526
80175639,525
80185688,533
80195737,528
80205754,531
80215797,530
80225840,524
80235854,525
80245899,522
80255946,519
80265963,513
80276010,513
80286058,512
80296061,512
80306112,506
80316153,509
80326162,501
80336219,505
80346264,509
80356272,508
80366326,503
80376372,502
80386382,511
80396436,511
80406483,509
80416532,509
80426552,510
80436600,513
80446649,508
80456665,508
80466712,509
80476761,509
80486782,508
80496831,508
80506879,510
80516886,504
80526944,504
80536992,507
80546998,508
80557056,506
80567102,504
80577110,498
80587165,508
80597213,500
80607223,509
80617276,510
80627324,504
80637337,505
80647388,506
80657431,507
80667476,511
80677493,504
80687538,507
80697586,507
80707605,515
80717653,510
80727703,503
80737710,507
80747772,502
80757822,505
80767831,507
80777882,503
80787930,507
80797941,508
80807999,499
80818048,505
80828059,506
80838115,508
80848162,508
80858176,500
80868230,502
80878282,508
80888329,504
80898347,508
80908396,510
80918441,507
80928459,516
80938508,509
80948557,515
80958565,526
80968622,528
80978669,530
80988678,531
80998735,524
81008783,532
81018794,525
81028851,528
81038901,525
81048916,520
81058971,519
81069021,518
81079037,519
81089093,514
81099144,510
81109161,513
81119215,510
81129263,509
81139312,510
81149332,505
81159379,501
81169430,509
81179437,503
81189499,507
81199546,508
81209554,507
81219614,510
81229667,504
81239682,502
81249741,513
81259792,503
81269807,511
81279865,505
81289919,512
81299938,511
81309998,509
81320050,508
81330067,510
81340126,505
81350181,510
81360202,506
81370258,507
81380308,506
81390325,502
81400364,510
81410419,506
81420466,502
81430475,506
81440533,499
81450580,508
81460588,503
81470645,508
81480694,506
81490707,509
81500763,509
81510810,501
81520823,508
81530878,509
81540928,506
81550943,509
81560998,506
81571046,507
81581064,510
81591115,508
81601163,505
81611182,510
81621224,503
81631286,503
81641305,504
81651343,501
81661401,503
81671450,508
81681461,506
81691516,505
81701560,509
81711570,506
81721623,512
81731677,516
81741695,518
81751753,511
81761807,526
81771831,525
81781893,528
81791949,527
81801973,529
81812030,533
81822079,530
81832098,527
81842137,528
81852195,519
81862211,520
81872250,514
81882305,514
81892356,515
81902366,511
81912424,511
81922476,507
81932490,510
81942549,501
81952600,504
81962618,507
81972680,504
81982737,506
81992762,511
82002823,501
82012874,501
82022891,502
82032946,507
82042997,508
82053017,502
82063057,506
82073118,509
82083135,508
82093169,510
82103224,506
82113237,513
82123271,507
82133327,512
82143344,507
82153384,510
82163438,505
82173481,507
82183488,503
82193541,501
82203590,501
82213605,507
82223654,502
82233699,503
82243717,501
82253767,504
82263816,507
82273833,507
82283874,501
82293937,505
82303958,507
82314000,504
82324061,507
82334084,506
82344128,509
82354184,508
82364202,507
82374247,507
82384302,501
82394319,503
82404360,508
82414415,509
82424466,504
82434483,504
82444537,510
82454586,502
82464602,503
82474654,500
82484701,503
82494721,509
82504763,510
82514822,498
82524839,506
82534876,501
82544932,507
82554950,514
82564990,512
82575047,520
82585064,514
82595106,522
82605162,527
82615180,528
82625223,527
82635274,530
82645293,522
82655339,524
82665393,523
82675440,522
82685456,520
82695507,513
82705554,515
82715570,506
82725609,504
82735669,508
82745689,501
82755722,507
82765772,508
82775786,501
82785828,507
82795886,503
82805901,506
82815940,502
82825993,508
82836011,507
82846053,504
82856107,503
82866125,508
82876171,512
82886221,512
82896238,508
82906284,508
82916334,509
82926383,508
82936402,502
82946442,509
82956501,507
82966518,499
82976560,502
82986620,502
82996640,498
83006683,508
83016740,507
83026759,504
83036806,504
83046862,504
83056878,499
83066922,508
83076981,506
83087002,500
83097048,507
83107101,510
83117118,506
83127163,505
83137211,506
83147225,507
83157269,501
83167305,507
83177361,510
83187380,503
83197419,510
83207472,511
83217485,504
83227521,501
83237576,503
83247592,507
83257634,508
83267689,505
83277706,508
83287751,505
83297813,501
83307833,505
83317878,505
83327928,498
83337947,507
83347996,506
83358049,502
83368069,509
83378120,508
83388160,514
83398172,515
83408241,523
83418283,519
83428342,527
83438363,526
83448405,532
83458462,525
83468481,525
83478525,521
83488579,526
83498596,515
83508642,518
83518700,513
83528723,513
83538770,506
83548825,511
83558843,508
83568889,508
83578940,509
83588959,501
83599007,502
83609046,503
83619055,504
83629122,496
83639161,497
83649218,501
83659237,502
83669277,508
83679334,505
83689352,505
83699392,506
83709447,511
83719462,503
83729500,502
83739553,507
83749570,508
83759613,511
83769663,507
83779676,512
83789721,509
83799770,510
83809781,506
83819826,502
83829867,501
83839877,504
83849941,510
83859977,500
83869985,507
83880049,504
83890091,504
83900147,504
83910162,498
83920198,504
83930252,506
83940270,505
83950317,505
83960373,504
83970393,504
83980439,506
83990491,510
84000510,506
84010558,507
84020610,511
84030627,506
84040675,510
84050716,507
84060748,510
84070800,506
84080839,507
84090850,514
84100914,511
84110956,501
84120964,510
84131027,506
84141070,506
84151127,503
84161144,504
84171187,501
84181237,506
84191254,505
84201298,509
84211352,511
84221370,508
84231417,522
84241470,524
84251486,530
84261536,529
84271574,529
84281603,534
84291650,533
84301687,526
84311697,525
84321763,525
84331801,522
84341808,519
84351869,520
84361910,510
84371917,511
84381981,515
84392023,512
84402029,513
84412093,507
84422138,506
84432189,509
84442205,509
84452249,501
84462300,504
84472317,499
84482371,500
84492414,501
84502445,503
84512493,505
84522528,508
84532537,508
84542599,507
84552637,503
84562645,503
84572711,510
84582749,509
84592756,507
84602822,507
84612864,511
84622868,504
84632932,504
84642973,505
84653019,506
84663035,502
84673080,499
84683128,503
84693143,502
84703188,505
84713227,500
84723238,505
84733306,505
84743344,498
84753355,505
84763422,504
84773461,506
84783471,502
84793537,502
84803576,499
84813580,508
84823642,503
84833681,508
84843682,509
84853740,505
84863780,500
84873781,506
84883844,506
84893888,510
84903937,504
84913951,503
84923997,507
84934035,506
84944061,510
84954105,505
84964143,507
84974149,505
84984211,508
84994248,510
85004253,507
85014316,500
85024353,504
85034359,504
85044418,511
85054457,512
85064460,512
85074527,517
85084570,523
85094574,521
85104637,527
85114684,527
85124688,528
85134755,528
85144801,521
85154839,520
85164870,522
85174920,516
85184959,511
85194971,510
85205039,515
85215080,506
85225093,509
85235161,506
85245206,503
85255216,509
85265284,497
85275327,508
85285336,508
85295404,503
85305449,505
85315453,509
85325519,508
85335563,508
85345567,511
85355630,513
85365672,511
85375670,513
85385733,504
85395778,510
85405772,514
85415817,503
85425880,509
85435918,510
85445926,505
85455990,507
85466028,509
85476030,507
85486096,511
85496139,507
85506144,505
85516209,505
85526251,504
85536252,506
85546318,501
85556361,508
85566365,505
85576428,507
85586472,510
85596471,508
85606532,506
85616574,503
85626570,510
85636617,505
85646682,503
85656682,506
85666730,507
85676795,507
85686835,511
85696844,507
85706909,503
85716952,503
85726959,505
85737017,510
85747057,510
85757056,510
85767122,505
85777167,509
85787173,500
85797241,509
85807290,501
85817297,502
85827363,507
85837412,506
85847414,508
85857462,508
85867527,504
85877527,512
85887577,505
85897643,512
85907683,514
85917690,515
85927756,528
85937801,528
85947811,526
85957880,527
85967927,529
85977937,528
85988004,523
85998051,520
86008057,518
86018128,517
86028178,515
86038179,511
86048244,511
86058296,509
86068299,511
86078350,502
86088415,504
86098417,504
86108465,504
86118528,500
86128526,504
86138573,499
86148639,500
86158640,508
86168690,501
86178758,511
86188805,507
86198812,514
86208878,510
86218926,509
86228934,512
86239005,512
86249053,510
86259054,510
86269120,512
86279167,510
86289167,507
86299215,512
86309281,513
86319283,505
86329333,508
86339399,510
86349397,503
86359445,506
86369507,510
86379505,503
86389553,508
86399622,501
86409669,500
86419675,506
86429742,502
86439792,511
86449798,509
86459868,508
86469913,508
86479914,506
86489980,509
86500024,508
86510023,503
86520068,506
86530131,502
86540126,504
86550171,503
86560233,506
86570232,503
86580278,506
86590341,502
86600344,507
86610395,508
86620464,503
86630468,506
86640519,512
86650590,506
86660640,505
86670646,506
86680712,511
86690761,498
86700765,514
86710837,512
86720890,517
86730889,526
86740932,524
86750992,521
86760987,524
86771033,531
86781096,528
86791094,529
86801138,522
86811202,521
86821198,518
86831244,513
86841306,507
86851306,513
86861351,512
86871412,511
86881409,509
86891454,502
86901517,505
86911513,499
86921559,498
86931619,507
86941661,507
86951657,503
86961702,504
86971763,512
86981760,506
86991803,511
87001865,505
87011861,503
87021904,504
87031967,505
87041963,507
87052008,510
87062070,511
87072066,512
87082111,511
87092172,508
87102168,509
87112208,510
87122265,508
87132257,508
87142299,507
87152359,505
87162403,501
87172402,505
87182449,500
87192516,501
87202517,505
87212568,507
87222634,500
87232633,502
87242681,503
87252746,505
87262745,507
87272795,505
87282862,506
87292862,508
87302913,506
87312981,504
87322983,505
87333032,508
87343097,504
87353097,502
87363147,501
87373213,508
87383216,505
87393266,504
87403318,506
87413336,511
87423387,509
87433438,507
87443505,509
87453508,503
87463556,506
87473619,498
87483618,508
87493663,511
87503726,510
87513723,509
87523765,520
87533827,517
87543826,531
87553870,533
87563934,531
87573932,535
87583977,532
87594041,534
87604044,529
87614096,528
87624148,524
87634168,518
87644217,518
87654267,516
87664287,513
87674334,508
87684379,504
87694441,510
87704437,505
87714484,505
87724548,507
87734544,498
87744592,506
87754656,509
87764653,508
87774701,502
87784767,507
87794764,506
87804810,514
87814874,509
87824872,511
87834917,510
87844961,516
87854976,513
87865021,505
87875066,505
87885082,512
87895126,508
87905169,509
87915182,501
87925228,503
87935276,504
87945341,504
87955342,506
87965389,505
87975450,504
87985449,506
87995498,502
88005566,509
88015564,504
88025608,510
88035674,503
88045672,505
88055715,510
88065761,506
88075776,507
88085821,510
88095868,511
88105887,501
88115935,509
88125981,505
88135996,501
88146042,504
88156086,501
88166102,509
88176151,503
88186199,508
88196264,506
88206264,508
88216312,502
88226379,506
88236377,507
88246424,503
88256486,510
88266479,507
88276520,505
88286561,508
88296569,506
88306607,508
88316646,514
88326655,521
88336697,523
88346739,525
88356750,530
88366793,528
88376837,529
88386852,526
88396895,524
88406942,526
88417007,521
88427010,521
88437060,517
88447127,509
88457126,512
88467172,504
88477238,508
88487239,504
88497288,504
88507336,506
88517354,504
88527401,506
88537448,495
88547466,500
88557515,496
88567563,504
88577584,505
88587634,504
88597686,509
88607709,506
88617762,502
88627808,509
88637826,509
88647878,507
88657929,501
88667991,504
88677992,510
88688041,506
88698108,500
88708111,499
88718160,508
88728207,500
88738223,504
88748268,504
88758314,501
88768330,506
88778376,504
88788423,503
88798439,508
88808484,504
88818532,501
88828548,508
88838595,508
88848641,507
88858657,505
88868703,499
88878750,503
88888767,502
88898817,510
88908859,508
88918875,507
88928922,510
88938969,507
88949014,508
88959025,508
88969073,510
88979125,501
88989152,499
88999208,507
89009262,504
89019285,507
89029334,510
89039383,500
89049403,506
89059453,506
89069502,509
89079521,510
89089565,516
89099610,514
89109627,517
89119674,516
89129724,524
89139741,528
89149788,532
89159834,524
89169881,531
89179896,528
89189940,519
89199989,518
89210004,512
89220047,514
89230095,513
89240113,510
89250161,506
89260209,508
89270224,503
89280269,503
89290315,506
89300333,505
89310381,497
89320431,504
89330448,505
89340496,501
89350544,509
89360561,513
89370606,512
89380654,512
89390669,512
89400717,510
89410761,514
89420776,517
89430822,513
89440869,512
89450917,510
89460935,510
89470983,511
89481030,509
89491049,504
89501097,511
89511144,505
89521163,499
89531210,500
89541258,507
89551274,504
89561320,510
89571365,505
89581380,505
89591427,510
89601470,508
89611482,509
89621532,502
89631584,506
89641609,499
89651663,508
89661714,506
89671734,510
89681778,501
89691821,501
89701868,503
89711879,507
89721919,505
89731962,509
89741974,505
89752018,507
89762056,499
89772063,508
89782104,507
89792149,504
89802163,507
89812207,502
89822249,507
89832261,506
89842305,508
89852347,515
89862361,508
89872405,518
89882448,518
89892463,523
89902508,527
89912550,530
89922565,527
89932608,527
89942649,522
89952694,521
89962709,521
89972757,520
89982806,515
89992826,512
90002875,513
90012923,509
90022941,509
90032992,507
90043039,502
90053053,499
90063099,504
90073146,506
90083162,502
90093214,504
90103262,511
90113279,506
90123327,511
90133373,513
90143390,511
90153436,512
90163485,517
90173501,513
90183546,514
90193590,515
90203637,509
90213653,510
90223701,511
90233749,505
90243761,505
90253806,510
90263849,503
90273861,498
90283905,505
90293952,499
90303966,505
90314013,504
90324059,500
90334074,498
90344118,505
90354164,505
90364179,504
90374226,505
90384274,509
90394289,500
90404335,508
90414383,510
90424432,508
90434448,509
90444494,509
90454540,511
90464553,511
90474593,503
90484636,510
90494651,509
90504698,511
90514743,504
90524756,511
90534798,512
90544842,508
90554857,510
90564905,510
90574954,510
90584973,505
90595022,509
90605070,511
90615090,512
90625138,517
90635186,521
90645203,524
90655252,522
90665300,528
90675349,523
90685364,531
90695410,527
90705457,518
90715473,522
90725516,513
90735562,511
90745581,512
90755632,509
90765684,510
90775704,508
90785754,504
90795805,502
90805830,504
90815888,505
90825939,499
90835956,504
90846006,508
90856054,507
90866071,506
90876116,510
90886161,512
90896175,512
90906221,508
90916263,505
90926279,512
90936327,506
90946379,512
90956430,506
90966448,507
90976497,504
90986546,504
90996566,506
91006615,503
91016663,501
91026681,508
91036733,500
91046784,505
91056803,500
91066852,507
91076902,502
91086923,502
91096975,505
91107025,502
91117046,506
91127097,505
91137146,509
91147162,508
91157211,502
91167261,512
91177279,505
91187329,508
91197376,510
91207422,510
91217439,509
91227491,512
91237542,508
91247560,511
91257612,508
91267662,512
91277678,516
91287726,515
91297776,510
91307800,516
91317854,516
91327908,517
91337933,516
91347988,515
91358043,522
91368067,519
91378119,528
91388170,533
91398196,532
91408249,533
91418298,527
91428344,533
91438361,523
91448408,528
91458456,521
91468474,515
91478521,521
91488570,515
91498586,516
91508634,505
91518683,507
91528704,510
91538756,507
91548804,505
91558823,497
91568877,504
91578928,499
91588944,505
91598988,503
91609033,507
91619047,501
91629095,508
91639144,503
91649163,503
91659214,504
91669265,505
91679315,508
91689333,507
91699382,512
91709431,502
91719452,499
91729502,506
91739551,505
91749569,502
91759616,504
91769664,506
91779681,503
91789730,504
91799778,502
91809798,503
91819846,502
91829893,492
91839912,501
91849961,503
91860013,506
91870034,513
91880085,506
91890136,510
91900157,512
91910209,511
91920262,511
91930279,513
91940330,514
91950380,514
91960430,508
91970458,511
91980518,504
91990574,509
92000593,503
92010644,509
92020695,507
92030717,507
92040767,501
92050814,507
92060833,511
92070882,507
92080932,515
92090949,520
92100996,520
92111042,519
92121060,523
92131109,520
92141159,525
92151181,524
92161230,521
92171281,517
92181333,516
92191353,514
92201406,511
92211457,514
92221476,512
92231526,509
92241579,509
92251604,500
92261657,507
92271712,507
92281732,506
92291783,503
92301835,505
92311856,510
92321909,507
92331963,512
92341989,505
92352044,511
92362100,508
92372122,515
92382175,513
92392229,512
92402254,507
92412309,512
92422366,512
92432389,511
92442444,507
92452496,509
92462550,509
92472571,500
92482627,507
92492683,502
92502704,509
92512756,501
92522807,502
92532828,504
92542878,503
92552928,505
92562947,506
92572998,499
92583048,506
92593067,504
92603119,505
92613169,510
92623187,506
92633239,503
92643293,504
92653316,506
92663366,510
92673420,507
92683445,507
92693498,509
92703547,506
92713595,504
92723618,508
92733667,510
92743717,511
92753734,509
92763782,514
92773833,514
92783852,521
92793903,520
92803952,527
92813971,525
92824023,529
92834078,526
92844101,523
92854152,519
92864202,521
92874223,518
92884275,510
92894326,510
92904348,506
92914400,508
92924454,510
92934508,504
92944531,508
92954582,504
92964636,507
92974660,507
92984715,500
92994770,505
93004793,506
93014848,508
93024901,502
93034924,509
93044977,507
93055029,502
93065049,510
93075101,507
93085152,513
93095173,504
93105224,505
93115274,507
93125294,503
93135343,506
93145394,508
93155417,508
93165470,510
93175521,507
93185573,508
93195593,506
93205644,508
93215695,504
93225718,504
93235770,505
93245824,509
93255844,506
93265895,508
93275947,500
93285967,503
93296014,509
93306066,507
93316083,506
93326134,505
93336179,508
93346194,508
93356245,503
93366291,503
93376306,509
93386357,508
93396407,506
93406429,507
93416481,502
93426530,506
93436579,504
93446601,514
93456652,517
93466700,522
93476720,517
93486770,519
93496819,525
93506838,522
93516888,524
93526937,529
93536957,519
93547007,519
93557058,515
93567079,515
93577128,509
93587173,514
93597193,513
93607245,512
93617297,512
93627320,512
93637373,501
93647428,501
93657455,506
93667508,506
93677562,503
93687610,501
93697628,505
93707678,498
93717726,504
93727743,507
93737790,506
93747835,510
93757850,509
93767895,509
93777941,512
93787959,509
93798009,511
93808058,505
93818074,510
93828121,507
93838167,506
93848182,507
93858231,507
93868281,510
93878301,511
93888351,508
93898401,503
93908419,504
93918467,508
93928515,503
93938530,507
93948576,510
93958621,504
93968671,503
93978688,510
93988737,505
93998786,509
94008804,510
94018851,509
94028896,510
94038908,510
94048956,507
94059003,508
94069020,510
94079066,507
94089112,504
94099130,503
94109178,507
94119227,508
94129246,512
94139295,513
94149344,512
94159359,520
94169407,517
94179455,519
94189501,526
94199516,521
94209564,523
94219610,525
94229626,518
94239672,525
94249717,524
94259732,519
94269783,521
94279833,516
94289853,508
94299900,514
94309948,513
94319959,505
94330005,511
94340053,506
94350071,506
94360116,504
94370161,507
94380178,502
94390228,507
94400277,502
94410297,505
94420346,507
94430391,506
94440439,503
94450456,509
94460500,508
94470545,511
94480558,509
94490604,507
94500650,511
94510665,507
94520713,510
94530760,503
94540775,511
94550823,512
94560873,508
94570892,510
94580941,505
94590988,511
94601007,508
94611053,501
94621103,511
94631120,506
94641167,509
94651215,507
94661233,507
94671283,508
94681331,508
94691348,501
94701398,509
94711443,507
94721491,508
94731507,511
94741555,504
94751603,504
94761623,506
94771673,503
94781722,511
94791740,506
94801788,510
94811836,506
94821850,512
94831895,509
94841943,509
94851959,507
94862006,511
94872056,504
94882078,513
94892129,511
94902180,517
94912200,518
94922247,527
94932294,528
94942343,529
94952362,530
94962415,526
94972466,521
94982486,528
94992536,524
95002585,518
95012605,522
95022654,519
95032701,518
95042720,517
95052767,515
95062817,515
95072833,510
95082880,509
95092928,506
95102942,509
95112988,503
95123035,498
95133049,507
95143096,503
95153140,504
95163154,499
95173203,507
95183256,506
95193312,508
95203332,506
95213378,511
95223420,509
95233438,505
95243483,507
95253530,510
95263547,503
95273596,509
95283646,510
95293664,506
95303716,504
95313770,511
95323789,508
95333840,508
95343893,509
95353913,503
95363965,505
95374016,510
95384040,508
95394093,507
95404142,510
95414165,503
95424219,502
95434272,505
95444295,510
95454349,500
95464401,507
95474457,504
95484481,502
95494535,505
95504588,509
95514606,506
95524656,505
95534708,502
95544729,506
95554782,501
95564839,502
95574866,493
95584918,500
95594972,505
95604996,507
95615053,510
95625106,510
95635127,510
95645182,506
95655239,503
95665260,508
95675312,507
95685367,509
95695389,510
95705436,512
95715481,512
95725525,515
95735537,518
95745578,517
95755622,524
95765637,524
95775688,530
95785735,526
95795746,524
95805789,522
95815829,516
95825846,521
95835891,510
95845938,518
95855952,513
95865997,512
95876042,513
95886059,510
95896107,510
95906153,508
95916168,509
95926216,509
95936265,503
95946281,502
95956330,509
95966377,506
95976425,506
95986442,505
95996491,506
96006539,501
96016559,509
96026613,509
96036666,506
96046688,502
96056744,507
96066798,509
96076814,507
96086862,505
96096909,501
96106923,508
96116969,506
96127011,505
96137020,506
96147063,507
96157106,505
96167117,503
96177159,502
96187203,499
96197249,505
96207262,504
96217306,503
96227349,506
96237364,508
96247413,505
96257463,507
96267482,509
96277533,510
96287583,506
96297603,502
96307648,508
96317691,507
96327706,502
96337753,507
96347799,512
96357816,510
96367863,507
96377914,512
96387936,505
96397986,512
96408034,507
96418051,507
96428100,511
96438151,507
96448169,508
96458218,504
96468266,506
96478315,507
96488332,500
96498377,504
96508423,501
96518442,504
96528493,509
96538540,508
96548556,510
96558602,509
96568648,518
96578663,516
96588706,524
96598753,529
96608768,529
96618815,530
96628859,530
96638873,531
96648919,529
96658963,524
96668977,526
96679022,522
96689068,514
96699116,512
96709133,514
96719180,512
96729230,510
96739248,505
96749295,510
96759341,506
96769355,506
96779401,505
96789446,500
96799461,501
96809504,502
96819550,497
96829562,498
96839607,506
96849649,504
96859664,503
96869711,498
96879757,500
96889777,504
96899826,504
96909870,502
96919883,502
96929928,508
96939971,506
96950020,507
96960035,506
96970083,506
96980131,506
96990146,503
97000193,497
97010239,504
97020254,502
97030300,504
97040342,505
97050352,504
97060394,504
97070434,506
97080445,501
97090490,503
97100537,498
97110550,507
97120592,501
97130635,507
97140649,505
97150695,502
97160742,506
97170759,505
97180805,503
97190852,505
97200867,505
97210915,507
97220961,507
97231009,504
97241026,506
97251073,508
97261119,507
97271131,506
97281176,505
97291222,503
97301236,506
97311283,507
97321330,506
97331344,503
97341391,509
97351439,509
97361457,510
97371503,510
97381547,509
97391561,508
97401610,508
97411660,502
97421678,503
97431727,508
97441776,512
97451794,511
97461844,515
97471895,516
97481945,525
97491965,532
97502015,531
97512062,536
97522079,532
97532128,530
97542178,525
97552196,521
97562247,521
97572295,512
97582311,514
97592361,514
97602411,514
97612431,514
97622483,504
97632536,503
97642561,505
97652613,503
97662664,500
97672684,499
97682733,497
97692785,506
97702806,509
97712859,505
97722911,505
97732962,507
97742982,505
97753034,505
97763087,509
97773106,513
97783160,509
97793212,510
97803231,506
97813281,510
97823332,507
97833352,504
97843403,509
97853456,500
97863477,510
97873529,509
97883581,508
97893603,508
97903653,499
97913703,507
97923719,502
97933770,503
97943820,504
97953839,510
97963890,507
97973937,506
97983985,506
97994000,502
98004046,506
98014093,509
98024111,503
98034159,505
98044206,504
98054219,508
98064263,507
98074309,503
98084324,504
98094372,507
98104419,500
98114433,504
98124476,507
98134522,507
98144538,504
98154584,503
98164629,506
98174643,507
98184690,502
98194736,501
98204784,508
98214798,502
98224843,503
98234888,510
98244902,506
98254947,512
98264990,511
98275001,511
98285039,512
98295083,516
98305096,516
98315142,521
98325187,521
98335203,529
98345246,535
98355287,533
98365299,536
98375339,531
98385381,533
98395392,524
98405435,526
98415480,521
98425495,517
98435538,517
98445580,508
98455624,514
98465637,504
98475680,511
98485724,506
98495735,510
98505779,503
98515817,505
98525828,503
98535872,497
98545914,500
98555925,505
98565965,506
98576006,507
98586017,507
98596064,510
98606110,510
98616131,503
98626177,507
98636223,510
98646236,505
98656280,512
98666325,511
98676337,507
98686378,512
98696419,510
98706428,505
98716471,507
98726514,511
98736559,509
98746571,505
98756613,504
98766657,503
98776671,505
98786714,506
98796754,510
98806769,506
98816813,504
98826857,511
98836874,510
98846922,508
98856970,506
98866987,500
98877033,500
98887076,500
98897093,498
98907139,503
98917184,505
98927198,506
98937243,506
98947287,508
98957330,501
98967337,498
98977379,508
98987423,504
98997437,504
99007482,499
99017527,510
99027545,504
99037591,504
99047635,509
99057652,508
99067699,508
99077745,505
99087756,507
99097798,505
99107839,510
99117850,507
99127888,505
99137929,505
99147942,515
99157985,512
99168029,515
99178041,517
99188083,525
99198125,527
99208137,532
99218179,523
99228221,522
99238267,527
99248280,526
99258324,517
99268370,512
99278388,513
99288437,514
99298485,513
99308499,513
99318546,504
99328596,506
99338615,503
99348660,505
99358707,504
99368725,502
99378770,506
99388814,502
99398830,505
99408875,507
99418919,505
99428933,504
99438976,508
99449020,508
99459035,506
99469080,506
99479125,510
99489171,508
99499188,510
99509235,504
99519281,507
99529298,507
99539348,502
99549398,509
99559414,506
99569459,506
99579506,503
99589526,503
99599575,500
99609625,506
99619639,498
99629684,499
99639733,500
99649747,499
99659792,504
99669836,507
99679849,503
99689892,503
99699938,505
99709983,505
99720002,499
99730051,502
99740097,502
99750112,506
99760159,508
99770205,501
99780223,501
99790273,505
99800321,502
99810337,501
99820382,503
99830428,498
99840442,499
99850487,506
99860533,503
99870548,506
99880595,507
99890642,509
99900658,505
99910705,505
99920752,504
99930767,502
99940810,502
99950855,502
99960901,499
99970916,510
99980963,508
99991012,508
100001031,500
100011080,508
100021130,511
100031149,510
100041195,519
100051241,522
100061257,526
100071302,524
100081348,529
100091365,527
100101410,531
100111456,520
100121474,519
100131524,521
100141571,516
100151590,519
100161637,517
100171687,512
100181703,512
100191754,502
100201803,503
100211824,504
100221876,507
100231924,507
100241970,504
100251985,501
100262033,504
100272082,506
100282103,505
100292154,506
100302202,509
100312219,501
100322268,510
100332317,509
100342338,500
100352390,508
100362436,506
100372455,509
100382501,509
100392550,513
100402567,512
100412616,510
100422666,508
100432687,506
100442740,512
100452792,508
100462840,504
100472856,506
100482903,508
100492953,504
100502973,501
100513023,504
100523072,511
100533093,509
100543139,507
100553185,505
100563204,509
100573255,501
100583306,508
100593323,501
100603368,508
100613417,504
100623436,508
100633486,509
100643537,503
100653560,510
100663613,504
100673662,507
100683681,509
100693736,501
100703790,509
100713839,505
100723858,509
100733908,503
100743957,509
100753975,503
100764024,507
100774072,509
100784091,505
100794140,509
100804190,510
100814209,508
100824257,512
100834304,517
100844322,516
100854366,516
100864408,525
100874421,525
100884468,529
100894515,527
100904533,527
100914579,527
100924624,525
100934637,526
100944681,522
100954726,513
100964773,519
100974789,514
100984834,516
100994879,511
101004894,503
101014937,504
101024980,504
101034994,503
101045034,506
101055072,506
101065084,503
101075130,505
101085176,509
101095187,504
101105233,506
101115278,507
101125296,508
101135343,510
101145387,505
101155401,512
101165445,514
101175492,513
101185508,508
101195554,511
101205603,510
101215651,506
101225667,510
101235715,499
101245763,507
101255780,506
101265823,501
101275864,509
101285879,508
101295923,505
101305967,502
101315984,499
101326031,503
101336074,508
101346089,504
101356136,504
101366183,500
101376198,509
101386242,504
101396284,501
101406298,509
101416342,506
101426390,506
101436408,509
101446454,507
101456499,509
101466543,507
101476558,506
101486603,501
101496650,504
101506667,509
101516713,501
101526761,510
101536774,510
101546818,512
101556866,504
101566883,499
101576929,506
101586974,506
101596989,508
101607030,507
101617073,502
101627088,512
101637134,505
101647180,513
101657197,516
101667241,521
101677283,526
101687297,522
101697342,529
101707388,528
101717400,529
101727446,528
101737493,525
101747541,527
101757558,521
101767606,528
101777655,516
101787670,517
101797716,515
101807764,515
101817781,513
101827828,509
101837877,499
101847893,501
101857941,501
101867986,501
101878002,507
101888048,504
101898096,505
101908114,506
101918165,504
101928213,505
101938231,508
101948282,508
101958330,509
101968382,510
101978403,509
101988454,512
101998501,509
102008523,507
102018570,511
102028619,505
102038639,508
102048688,508
102058736,508
102068753,504
102078808,506
102088864,509
102098890,507
102108947,501
102119003,503
102129027,502
102139080,504
102149136,504
102159154,508
102169203,501
102179252,503
102189269,506
102199318,503
102209368,505
102219385,510
102229434,508
102239480,505
102249527,506
102259540,507
102269583,502
102279631,508
102289646,502
102299691,505
102309739,510
102319757,505
102329801,500
102339848,502
102349863,507
102359905,506
102369947,502
102379962,501
102390007,505
102400051,508
102410065,507
102420111,507
102430156,507
102440170,500
102450215,501
102460259,508
102470306,508
102480325,509
102490376,515
102500423,519
102510439,522
102520485,527
102530537,520
102540558,528
102550610,524
102560660,526
102570680,527
102580732,516
102590783,521
102600803,521
102610854,518
102620904,514
102630922,514
102640972,509
102651021,512
102661039,508
102671088,510
102681137,509
102691153,503
102701198,508
102711246,508
102721264,503
102731315,505
102741365,507
102751414,504
102761429,500
102771477,509
102781524,504
102791541,507
102801588,507
102811636,502
102821652,502
102831699,505
102841745,511
102851757,505
102861805,505
102871850,510
102881867,504
102891914,507
102901962,511
102911982,510
102922033,503
102932083,504
102942102,507
102952149,501
102962197,509
102972239,506
102982253,510
102992297,507
103002342,509
103012359,506
103022404,501
103032453,508
103042466,510
103052509,505
103062556,510
103072571,503
103082616,505
103092658,508
103102668,508
103112712,506
103122759,507
103132775,509
103142824,505
103152872,508
103162889,508
103172938,502
103182986,510
103193003,503
103203049,502
103213097,504
103223116,509
103233165,508
103243213,507
103253261,506
103263276,509
103273324,512
103283373,511
103293390,521
103303438,515
103313487,518
103323506,525
103333554,521
103343600,524
103353617,522
103363669,519
103373718,520
103383733,515
103393780,517
103403827,512
103413844,514
103423888,513
103433934,507
103443946,512
103453994,507
103464039,507
103474086,505
103484100,499
103494146,507
103504193,499
103514206,503
103524255,507
103534304,501
103544322,505
103554374,505
103564422,506
103574437,504
103584479,505
103594522,509
103604536,510
103614581,510
103624625,510
103634640,512
103644687,504
103654736,509
103664754,512
103674802,511
103684849,505
103694865,507
103704911,508
103714955,505
103724970,508
103735016,508
103745065,506
103755112,509
103765131,501
103775176,508
103785221,499
103795238,508
103805285,506
103815331,507
103825344,510
103835391,508
103845435,503
103855450,505
103865494,509
103875542,505
103885560,506
103895609,503
103905659,506
103915678,508
103925726,508
103935772,505
103945786,506
103955829,510
103965871,509
103975881,506
103985924,509
103995968,509
104006013,509
104016026,503
104026073,508
104036122,497
104046142,508
104056190,507
104066238,509
104076256,512
104086306,512
104096355,519
104106377,518
104116424,522
104126464,521
104136474,530
104146518,531
104156563,526
104166575,527
104176616,527
104186660,521
104196675,522
104206719,515
104216763,512
104226778,515
104236822,514
104246865,513
104256910,504
104266927,505
104276978,502
104287026,511
104297043,506
104307087,507
104317132,503
104327149,505
104337192,499
104347238,509
104357260,506
104367314,510
104377364,507
104387382,506
104397432,503
104407483,511
104417502,509
104427552,512
104437602,512
104447619,508
104457668,506
104467717,507
104477735,505
104487784,510
104497833,510
104507878,511
104517893,512
104527941,512
104537986,507
104548004,505
104558056,505
104568101,510
104578114,511
104588158,503
104598204,501
104608223,502
104618274,501
104628323,508
104638339,499
104648387,508
104658435,503
104668451,506
104678496,509
104688539,504
104698555,496
104708599,504
104718645,505
104728694,508
104738711,504
104748762,505
104758810,511
104768827,511
104778878,500
104788930,510
104798950,512
104809001,512
104819053,508
104829072,510
104839123,507
104849174,510
104859193,503
104869244,511
104879294,509
104889309,513
104899358,517
104909409,517
104919429,523
104929477,528
104939527,530
104949545,525
104959595,528
104969646,528
104979661,520
104989708,524
104999757,522
105009806,521
105019826,512
105029875,511
105039925,510
105049941,505
105059987,510
105070036,507
105080053,510
105090098,507
105100146,506
105110163,504
105120211,506
105130258,509
105140274,506
105150320,508
105160365,508
105170380,509
105180428,511
105190475,502
105200495,505
105210543,503
105220586,511
105230598,506
105240644,507
105250694,502
105260740,510
105270758,507
105280806,508
105290857,505
105300878,503
105310928,500
105320979,502
105331000,505
105341050,507
105351101,505
105361120,497
105371171,498
105381223,507
105391245,504
105401294,502
105411341,502
105421359,501
105431408,501
105441459,505
105451477,502
105461526,503
105471572,505
105481588,507
105491633,507
105501678,506
105511722,509
105521736,508
105531780,505
105541829,506
105551840,508
105561885,503
105571925,506
105581936,506
105591982,508
105602026,509
105612044,503
105622093,505
105632141,504
105642157,505
105652206,506
105662257,507
105672275,507
105682323,508
105692370,501
105702388,507
105712435,512
