timestamp, ppg
19032080,519
19041679,520
19051699,527
19061751,531
19071801,527
19081824,528
19091877,531
19101930,530
19111981,527
19122002,527
19132053,527
19142103,524
19152124,520
19162176,517
19172226,516
19182242,509
19192290,508
19202341,507
19212362,506
19222415,505
19232466,506
19242487,497
19252534,504
19262579,500
19272596,502
19282648,507
19292699,505
19302720,507
19312770,504
19322822,505
19332842,510
19342894,503
19352944,501
19362990,503
19373006,506
19383058,505
19393108,504
19403128,503
19413180,502
19423231,503
19433255,500
19443306,498
19453360,499
19463379,503
19473428,505
19483478,500
19493502,501
19503558,499
19513615,500
19523637,505
19533689,504
19543742,507
19553766,505
19563821,504
19573873,506
19583897,504
19593949,507
19604004,501
19614057,507
19624080,504
19634132,503
19644187,506
19654205,505
19664257,502
19674311,507
19684333,504
19694384,504
19704437,502
19714458,504
19724511,504
19734565,502
19744586,500
19754638,511
19764691,503
19774715,510
19784770,512
19794823,514
19804849,520
19814904,522
19824960,527
19834986,517
19845040,518
19855095,522
19865147,516
19875166,515
19885216,513
19895267,513
19905286,508
19915336,502
19925386,507
19935408,505
19945458,506
19955505,504
19965522,500
19975571,507
19985621,502
19995643,504
20005695,505
20015747,499
20025767,507
20035820,502
20045872,507
20055893,511
20065945,510
20075997,512
20086019,512
20096071,514
20106122,512
20116170,510
20126187,506
20136238,509
20146290,511
20156311,505
20166359,501
20176408,504
20186431,504
20196483,504
20206534,508
20216554,498
20226605,507
20236655,505
20246673,505
20256723,501
20266773,506
20276796,499
20286847,507
20296898,510
20306919,502
20316970,508
20327020,509
20337039,508
20347091,506
20357140,508
20367191,505
20377212,510
20387263,506
20397315,504
20407337,508
20417387,506
20427436,502
20437455,510
20447505,510
20457555,508
20467575,511
20477624,505
20487678,508
20497703,512
20507749,516
20517799,518
20527822,522
20537872,523
20547921,523
20557940,525
20567989,526
20578039,521
20588059,525
20598110,524
20608161,514
20618212,516
20628233,516
20638284,510
20648336,508
20658359,507
20668412,509
20678464,499
20688488,501
20698541,504
20708595,506
20718618,504
20728670,508
20738725,507
20748745,507
20758794,508
20768844,505
20778864,508
20788914,510
20798967,509
20808984,514
20819030,514
20829079,512
20839095,509
20849141,508
20859189,509
20869238,507
20879258,501
20889308,501
20899361,502
20909382,506
20919433,504
20929484,509
20939505,512
20949556,506
20959607,511
20969626,510
20979676,509
20989727,510
20999749,511
21009802,503
21019853,508
21029871,509
21039921,502
21049972,512
21059993,506
21070043,506
21080095,502
21090116,506
21100163,510
21110210,512
21120252,508
21130264,512
21140306,507
21150349,506
21160364,508
21170410,504
21180457,515
21190475,518
21200523,514
21210573,521
21220591,528
21230639,525
21240686,524
21250701,532
21260745,530
21270792,527
21280809,527
21290860,528
21300910,522
21310924,517
21320968,515
21331014,516
21341028,513
21351074,504
21361121,506
21371165,500
21381180,504
21391224,507
21401264,500
21411278,503
21421325,501
21431374,506
21441392,505
21451443,510
21461492,505
21471510,508
21481557,502
21491603,504
21501618,510
21511659,508
21521705,507
21531720,502
21541767,505
21551814,508
21561831,507
21571880,506
21581929,505
21591946,501
21601996,506
21612047,501
21622096,502
21632116,504
21642167,506
21652216,507
21662234,502
21672281,501
21682329,504
21692346,506
21702393,505
21712444,508
21722466,509
21732520,509
21742571,508
21752591,502
21762639,503
21772691,505
21782711,511
21792760,504
21802808,508
21812825,504
21822867,509
21832912,509
21842927,512
21852974,512
21863019,509
21873063,512
21883080,521
21893125,522
21903172,525
21913187,526
21923240,529
21933292,524
21943315,518
21953365,518
21963416,523
21973435,522
21983484,518
21993532,508
22003552,516
22013602,512
22023653,509
22033673,510
22043724,506
22053776,509
22063797,501
22073846,503
22083896,509
22093920,498
22103974,499
22114025,507
22124077,509
22134099,510
22144146,509
22154195,508
22164214,507
22174262,510
22184308,510
22194322,508
22204370,503
22214419,510
22224440,499
22234492,506
22244544,507
22254563,506
22264610,504
22274658,507
22284673,503
22294717,507
22304764,508
22314782,505
22324833,505
22334881,497
22344899,504
22354951,501
22365001,500
22375056,501
22385076,503
22395126,504
22405179,499
22415200,496
22425247,499
22435291,501
22445310,507
22455356,504
22465407,499
22475428,504
22485476,503
22495526,498
22505547,506
22515597,506
22525645,512
22535666,516
22545718,513
22555770,519
22565787,521
22575837,524
22585885,526
22595903,519
22605948,526
22615995,524
22626044,513
22636060,514
22646106,514
22656154,514
22666172,512
22676222,510
22686271,505
22696289,505
22706338,503
22716387,505
22726403,503
22736451,501
22746497,500
22756514,498
22766562,497
22776608,505
22786626,503
22796674,507
22806720,501
22816737,505
22826782,505
22836829,504
22846847,510
22856892,505
22866938,501
22876986,505
22887005,506
22897056,506
22907114,507
22917139,503
22927188,507
22937236,502
22947255,506
22957303,501
22967352,509
22977370,504
22987419,508
22997467,506
23007486,505
23017536,506
23027585,508
23037602,507
23047649,507
23057698,508
23067716,507
23077767,505
23087817,500
23097834,508
23107885,506
23117935,504
23127985,502
23138006,510
23148056,507
23158108,508
23168124,507
23178172,511
23188220,515
23198237,522
23208287,525
23218336,522
23228354,528
23238402,523
23248450,532
23258469,530
23268516,527
23278562,524
23288580,527
23298626,514
23308673,516
23318690,515
23328736,514
23338782,509
23348799,508
23358845,508
23368891,508
23378939,501
23388958,505
23399006,501
23409053,501
23419072,497
23429114,500
23439156,505
23449173,507
23459220,502
23469267,509
23479281,507
23489326,514
23499372,514
23509388,513
23519434,511
23529475,504
23539485,504
23549531,504
23559577,509
23569594,509
23579642,501
23589687,509
23599703,508
23609749,509
23619796,509
23629839,507
23639854,503
23649901,501
23659946,510
23669959,509
23680005,507
23690053,504
23700069,503
23710114,513
23720160,510
23730176,511
23740224,509
23750268,511
23760280,508
23770327,508
23780376,512
23790395,506
23800442,510
23810486,509
23820505,512
23830554,512
23840605,508
23850624,512
23860672,512
23870714,515
23880759,526
23890771,529
23900817,530
23910864,533
23920879,533
23930926,531
23940975,528
23950991,530
23961041,526
23971089,522
23981108,516
23991159,519
24001211,514
24011229,509
24021279,508
24031327,507
24041345,503
24051392,506
24061441,504
24071459,499
24081507,502
24091556,503
24101576,508
24111627,506
24121678,512
24131729,505
24141750,512
24151799,508
24161848,512
24171866,514
24181919,514
24191967,508
24201982,505
24212031,511
24222072,510
24232083,509
24242129,508
24252176,510
24262191,510
24272239,504
24282290,499
24292309,507
24302358,500
24312409,505
24322427,502
24332474,507
24342524,505
24352541,504
24362587,499
24372635,505
24382684,505
24392703,502
24402753,506
24412797,512
24422813,502
24432861,505
24442911,505
24452929,504
24462979,507
24473027,510
24483042,504
24493091,506
24503143,505
24513163,506
24523214,510
24533264,507
24543285,511
24553334,518
24563383,524
24573401,524
24583455,530
24593507,532
24603532,531
24613581,534
24623631,529
24633678,534
24643694,531
24653739,528
24663785,524
24673803,515
24683851,514
24693900,509
24703916,507
24713962,503
24724006,509
24734021,502
24744068,505
24754111,501
24764125,501
24774169,503
24784215,499
24794230,501
24804276,504
24814319,505
24824334,508
24834381,507
24844432,510
24854453,510
24864504,503
24874551,509
24884598,505
24894613,512
24904658,510
24914705,505
24924724,506
24934776,501
24944828,506
24954847,501
24964894,498
24974942,501
24984960,505
24995011,506
25005061,495
25015078,504
25025129,500
25035180,504
25045201,505
25055257,502
25065311,504
25075333,504
25085385,498
25095436,506
25105457,503
25115508,497
25125558,505
25135608,496
25145624,499
25155679,505
25165733,504
25175753,507
25185804,505
25195853,505
25205867,508
25215913,511
25225960,509
25235979,515
25246029,518
25256080,525
25266100,528
25276148,523
25286200,533
25296220,533
25306269,533
25316319,532
25326341,530
25336391,520
25346439,519
25356458,514
25366507,511
25376555,513
25386601,505
25396619,503
25406665,505
25416713,502
25426728,495
25436775,494
25446825,498
25456845,499
25466897,492
25476945,502
25486963,499
25497012,504
25507061,503
25517083,510
25527137,509
25537188,508
25547204,507
25557251,506
25567303,503
25577323,505
25587375,509
25597426,509
25607445,511
25617494,506
25627545,508
25637594,506
25647615,503
25657663,508
25667710,503
25677730,505
25687778,505
25697826,502
25707836,501
25717881,497
25727926,504
25737941,505
25747986,506
25758030,503
25768041,504
25778087,506
25788133,504
25798149,506
25808195,505
25818244,502
25828260,508
25838308,504
25848354,505
25858368,508
25868416,506
25878466,512
25888516,511
25898536,520
25908586,523
25918639,525
25928662,532
25938713,536
25948765,532
25958784,531
25968834,534
25978888,532
25988909,529
25998961,527
26009007,517
26019025,520
26029073,518
26039121,514
26049138,511
26059186,508
26069232,507
26079249,506
26089298,505
26099349,506
26109367,497
26119419,496
26129471,498
26139524,502
26149547,504
26159600,505
26169651,501
26179667,508
26189715,503
26199765,505
26209786,510
26219838,509
26229890,514
26239911,511
26249964,505
26260019,513
26270044,511
26280098,513
26290152,509
26300172,506
26310220,510
26320267,510
26330283,508
26340333,505
26350382,507
26360402,505
26370453,509
26380505,502
26390557,512
26400578,507
26410629,506
26420677,503
26430695,504
26440742,504
26450790,510
26460808,508
26470856,513
26480904,510
26490923,510
26500973,507
26511023,514
26521043,511
26531094,513
26541144,522
26551161,528
26561206,534
26571249,543
26581262,542
26591305,548
26601351,552
26611367,556
26621414,552
26631462,555
26641509,549
26651522,546
26661567,535
26671610,539
26681624,534
26691667,529
26701708,524
26711720,522
26721767,516
26731815,509
26741832,506
26751878,503
26761924,493
26771940,495
26781989,492
26792035,494
26802048,486
26812094,486
26822139,494
26832153,487
26842203,498
26852253,500
26862271,499
26872320,500
26882369,500
26892419,506
26902439,507
26912490,510
26922540,507
26932556,511
26942600,503
26952647,507
26962660,504
26972709,508
26982763,506
26992782,500
27002834,503
27012883,504
27022900,506
27032949,505
27042996,505
27053011,506
27063054,507
27073101,502
27083121,504
27093170,503
27103219,504
27113239,502
27123289,500
27133338,503
27143385,503
27153402,506
27163451,501
27173497,505
27183513,503
27193558,507
27203605,505
27213623,514
27223681,518
27233735,521
27243754,526
27253802,528
27263854,530
27273872,536
27283921,531
27293970,531
27303987,532
27314036,531
27324089,523
27334108,519
27344158,514
27354207,508
27364223,509
27374274,511
27384324,506
27394371,498
27404384,504
27414427,502
27424470,501
27434491,500
27444542,496
27454587,497
27464600,500
27474648,500
27484695,495
27494711,495
27504760,500
27514812,499
27524836,505
27534890,499
27544943,507
27554960,505
27565010,505
27575058,504
27585076,506
27595126,506
27605176,508
27615194,501
27625243,507
27635292,505
27645342,504
27655363,507
27665415,504
27675468,504
27685489,500
27695538,502
27705588,503
27715605,501
27725654,503
27735701,502
27745719,496
27755770,501
27765821,500
27775842,502
27785898,503
27795950,501
27805972,502
27816024,507
27826075,505
27836095,502
27846147,507
27856198,502
27866217,505
27876263,506
27886311,503
27896358,508
27906380,509
27916433,505
27926491,515
27936519,517
27946578,523
27956633,528
27966656,529
27976710,527
27986763,527
27996788,531
28006841,528
28016896,525
28026922,521
28036978,518
28047036,510
28057061,508
28067118,507
28077170,505
28087196,509
28097252,499
28107312,500
28117340,500
28127398,502
28137452,494
28147504,495
28157523,493
28167574,500
28177626,497
28187648,493
28197699,503
28207751,501
28217771,497
28227822,506
28237874,508
28247895,505
28257944,507
28267994,506
28278015,504
28288065,501
28298113,501
28308133,502
28318183,506
28328231,506
28338251,504
28348302,497
28358352,501
28368364,502
28378414,506
28388468,505
28398519,504
28408536,505
28418584,499
28428635,506
28438652,500
28448702,503
28458750,501
28468768,504
28478817,495
28488865,504
28498883,499
28508933,502
28518985,505
28529007,506
28539056,499
28549102,507
28559120,504
28569169,504
28579217,500
28589232,498
28599281,500
28609332,505
28619351,505
28629397,499
28639444,508
28649495,506
28659521,508
28669573,511
28679626,515
28689648,524
28699692,518
28709739,528
28719757,528
28729804,521
28739853,528
28749871,520
28759919,526
28769967,518
28779983,522
28790030,516
28800077,515
28810090,512
28820137,506
28830183,498
28840201,504
28850253,503
28860303,501
28870320,499
28880371,499
28890422,500
28900471,503
28910488,498
28920539,500
28930591,503
28940614,508
28950665,501
28960716,505
28970734,506
28980784,510
28990834,505
29000853,505
29010904,503
29020954,503
29030971,510
29041020,502
29051069,504
29061085,508
29071134,509
29081184,504
29091199,504
29101247,499
29111292,502
29121308,498
29131353,505
29141401,505
29151449,499
29161464,507
29171513,507
29181558,499
29191576,508
29201623,502
29211670,500
29221687,501
29231738,506
29241788,509
29251806,505
29261854,509
29271903,505
29281920,508
29291966,502
29302010,504
29312025,503
29322072,500
29332115,511
29342134,512
29352188,510
29362238,518
29372256,513
29382303,519
29392351,524
29402408,526
29412431,532
29422490,531
29432550,528
29442579,531
29452638,527
29462699,521
29472730,522
29482789,518
29492846,509
29502871,514
29512918,509
29522965,503
29532978,501
29543024,500
29553073,502
29563089,506
29573132,499
29583178,497
29593197,505
29603248,505
29613299,509
29623316,506
29633364,504
29643413,511
29653464,507
29663483,512
29673537,511
29683588,511
29693604,511
29703652,507
29713697,507
29723714,503
29733763,510
29743808,510
29753822,499
29763867,503
29773917,503
29783935,505
29793982,501
29804027,507
29814044,505
29824090,506
29834139,498
29844156,508
29854201,502
29864245,499
29874266,502
29884315,508
29894357,508
29904403,504
29914422,505
29924466,505
29934512,507
29944528,505
29954577,498
29964625,507
29974639,505
29984685,510
29994732,505
30004748,508
30014798,510
30024848,511
30034866,510
30044912,512
30054959,518
30064975,523
30075023,524
30085072,531
30095089,528
30105135,535
30115185,533
30125202,530
30135250,532
30145298,529
30155345,521
30165362,523
30175408,522
30185453,514
30195466,517
30205511,511
30215558,510
30225573,508
30235618,506
30245665,506
30255680,498
30265728,505
30275771,499
30285784,505
30295826,504
30305871,505
30315885,507
30325929,505
30335971,501
30345983,508
30356026,507
30366070,512
30376083,511
30386129,512
30396173,506
30406217,505
30416233,507
30426280,500
30436326,509
30446340,506
30456383,510
30466425,505
30476439,502
30486488,505
30496535,509
30506552,505
30516598,508
30526645,501
30536660,508
30546705,505
30556751,505
30566767,508
30576811,502
30586854,497
30596865,508
30606908,508
30616952,506
30626965,506
30637012,505
30647058,501
30657106,499
30667126,509
30677174,508
30687220,509
30697232,508
30707276,508
30717323,500
30727342,507
30737387,504
30747434,511
30757449,511
30767494,520
30777541,520
30787561,529
30797603,528
30807642,534
30817657,526
30827704,534
30837751,527
30847768,532
30857813,527
30867861,522
30877878,520
30887924,515
30897967,516
30908011,517
30918031,512
30928075,512
30938118,503
30948131,502
30958176,506
30968221,496
30978237,500
30988283,501
30998328,503
31008341,499
31018383,500
31028423,503
31038437,505
31048481,502
31058527,510
31068544,504
31078592,510
31088643,506
31098660,503
31108704,507
31118748,504
31128763,502
31138807,508
31148855,507
31158903,503
31168918,504
31178964,506
31189012,503
31199028,500
31209074,502
31219119,495
31229139,499
31239190,504
31249239,501
31259256,502
31269302,499
31279344,498
31289357,505
31299409,498
31309460,505
31319482,507
31329532,497
31339582,502
31349603,507
31359648,504
31369692,503
31379706,504
31389751,503
31399796,506
31409844,505
31419865,502
31429913,501
31439957,497
31449971,503
31460020,497
31470069,505
31480086,507
31490135,504
31500183,509
31510204,512
31520251,516
31530293,518
31540308,520
31550354,528
31560401,529
31570415,532
31580462,529
31590512,527
31600526,523
31610575,521
31620627,522
31630646,517
31640696,516
31650745,498
31660790,511
31670809,503
31680860,505
31690911,502
31700930,503
31710978,499
31721029,506
31731050,507
31741100,499
31751150,497
31761167,506
31771216,507
31781263,507
31791280,510
31801328,505
31811380,506
31821402,501
31831452,502
31841502,504
31851522,507
31861569,502
31871619,509
31881639,509
31891688,508
31901745,506
31911802,502
31921828,505
31931884,508
31941940,505
31951964,508
31962013,506
31972061,510
31982082,505
31992131,501
32002179,508
32012200,503
32022253,507
32032304,507
32042323,509
32052372,504
32062424,507
32072442,501
32082492,501
32092543,506
32102563,502
32112616,504
32122665,503
32132686,500
32142737,507
32152789,505
32162838,506
32172856,509
32182905,508
32192955,505
32202976,501
32213025,508
32223075,507
32233093,507
32243143,509
32253192,519
32263212,526
32273259,524
32283313,532
32293341,536
32303401,532
32313458,538
32323489,532
32333549,533
32343604,531
32353633,527
32363694,526
32373752,516
32383783,519
32393845,513
32403905,513
32413962,505
32423988,506
32434040,504
32444095,507
32454113,498
32464166,502
32474219,502
32484242,507
32494293,508
32504342,505
32514361,510
32524411,499
32534462,508
32544481,510
32554533,510
32564581,514
32574598,512
32584643,509
32594689,509
32604703,510
32614752,512
32624801,507
32634821,511
32644872,509
32654922,503
32664974,502
32674992,506
32685043,511
32695094,509
32705115,503
32715167,506
32725215,504
32735236,506
32745288,503
32755338,503
32765353,508
32775401,509
32785452,506
32795471,501
32805520,508
32815567,508
32825582,503
32835631,504
32845677,509
32855697,506
32865749,504
32875799,504
32885819,508
32895871,506
32905922,504
32915974,506
32925995,499
32936046,508
32946098,502
32956117,512
32966165,506
32976216,517
32986235,517
32996281,522
33006325,524
33016344,528
33026396,530
33036451,528
33046473,533
33056526,531
33066579,528
33076599,529
33086648,523
33096701,516
33106724,512
33116777,511
33126831,515
33136854,511
33146908,506
33156957,497
33167009,502
33177031,500
33187082,504
33197134,502
33207155,502
33217207,502
33227258,503
33237281,503
33247331,504
33257381,510
33267398,504
33277447,508
33287495,511
33297510,503
33307555,507
33317602,507
33327619,509
33337669,511
33347718,509
33357734,507
33367778,508
33377818,505
33387834,511
33397882,510
33407936,505
33417986,505
33428002,502
33438052,507
33448099,500
33458114,508
33468159,509
33478204,507
33488221,511
33498271,506
33508320,508
33518338,505
33528385,504
33538433,504
33548452,508
33558501,507
33568548,504
33578565,498
33588611,510
33598660,506
33608676,499
33618721,505
33628762,503
33638775,503
33648821,503
33658865,506
33668906,504
33678920,511
33688965,509
33699009,514
33709022,515
33719063,520
33729104,522
33739116,526
33749160,523
33759204,527
33769219,526
33779266,526
33789311,521
33799324,519
33809370,517
33819415,517
33829427,509
33839470,512
33849514,508
33859528,503
33869574,504
33879617,505
33889628,505
33899673,503
33909717,505
33919760,499
33929773,507
33939815,507
33949857,511
33959865,509
33969907,511
33979947,508
33989958,511
34000002,511
34010047,513
34020064,508
34030110,508
34040156,509
34050171,510
34060213,511
34070257,509
34080273,508
34090317,505
34100362,503
34110377,506
34120425,503
34130473,502
34140491,503
34150536,501
34160579,505
34170623,499
34180636,508
34190682,508
34200725,507
34210742,505
34220790,511
34230836,506
34240853,508
34250900,504
34260951,505
34270970,508
34281021,504
34291074,507
34301095,506
34311146,504
34321196,504
34331217,509
34341266,508
34351314,499
34361334,507
34371385,502
34381433,511
34391447,512
34401489,517
34411534,513
34421577,523
34431591,523
34441630,529
34451673,531
34461683,532
34471724,526
34481764,527
34491779,524
34501824,526
34511868,520
34521885,515
34531930,512
34541974,514
34551989,512
34562034,502
34572080,506
34582096,500
34592141,506
34602189,502
34612206,504
34622258,503
34632306,502
34642320,499
34652365,503
34662409,502
34672453,504
34682467,504
34692510,511
34702554,511
34712564,510
34722603,510
34732646,507
34742659,508
34752701,503
34762741,505
34772758,509
34782802,506
34792847,502
34802862,501
34812909,496
34822956,501
34832973,496
34843020,504
34853063,505
34863077,499
34873117,505
34883159,505
34893174,502
34903218,502
34913264,500
34923309,498
34933326,505
34943373,502
34953420,503
34963435,506
34973478,498
34983522,508
34993536,507
35003584,507
35013631,506
35023647,505
35033695,510
35043742,508
35053754,509
35063800,501
35073846,505
35083863,504
35093913,510
35103959,514
35113976,516
35124024,522
35134074,517
35144091,524
35154142,525
35164191,532
35174240,531
35184257,527
35194304,518
35204350,523
35214367,522
35224415,516
35234468,518
35244494,509
35254546,513
35264598,509
35274619,506
35284672,508
35294721,498
35304737,505
35314781,499
35324823,506
35334836,504
35344882,504
35354929,505
35364946,508
35374993,509
35385040,503
35395057,507
35405104,512
35415148,514
35425194,508
35435210,507
35445256,508
35455303,511
35465318,509
35475362,503
35485410,506
35495427,503
35505475,506
35515522,507
35525536,500
35535583,508
35545631,507
35555647,507
35565694,502
35575742,499
35585755,507
35595801,490
35605851,501
35615868,506
35625918,506
35635965,501
35645981,500
35656030,508
35666081,504
35676133,506
35686151,506
35696202,511
35706249,509
35716267,512
35726315,511
35736362,507
35746379,510
35756427,509
35766476,505
35776494,508
35786539,500
35796587,506
35806606,511
35816654,513
35826704,508
35836723,519
35846771,516
35856816,523
35866833,526
35876881,524
35886928,532
35896943,526
35906991,519
35917037,526
35927084,517
35937097,517
35947144,511
35957190,513
35967210,508
35977258,504
35987305,508
35997322,504
36007370,503
36017421,502
36027439,502
36037489,503
36047539,506
36057558,503
36067606,505
36077654,502
36087672,511
36097722,511
36107772,506
36117792,502
36127840,512
36137891,509
36147911,510
36157961,505
36168013,505
36178064,506
36188079,507
36198125,511
36208174,512
36218192,503
36228238,504
36238284,502
36248299,505
36258344,506
36268388,506
36278399,510
36288444,505
36298491,508
36308508,504
36318553,506
36328601,505
36338611,505
36348654,499
36358698,501
36368713,507
36378758,504
36388803,505
36398821,508
36408868,502
36418916,505
36428963,507
36438982,502
36449033,503
36459084,501
36469105,509
36479157,501
36489208,508
36499228,507
36509278,508
36519325,511
36529344,511
36539393,519
36549443,522
36559460,521
36569508,527
36579559,530
36589573,529
36599621,531
36609666,523
36619681,523
36629731,515
36639787,517
36649810,514
36659865,515
36669920,511
36679976,510
36690001,502
36700052,506
36710105,502
36720126,504
36730174,501
36740222,501
36750237,503
36760277,508
36770319,502
36780334,509
36790381,507
36800427,509
36810443,509
36820492,510
36830538,511
36840550,509
36850593,512
36860635,511
36870648,506
36880693,508
36890737,507
36900748,510
36910792,502
36920837,508
36930884,501
36940899,508
36950947,503
36960991,498
36971004,499
36981046,504
36991091,504
37001109,498
37011152,503
37021197,503
37031212,502
37041259,506
37051303,497
37061318,501
37071365,500
37081410,507
37091423,504
37101468,508
37111518,505
37121535,504
37131582,508
37141630,501
37151646,507
37161694,501
37171745,503
37181793,501
37191809,504
37201858,502
37211908,505
37221924,509
37231970,515
37242019,513
37252037,519
37262084,519
37272132,527
37282150,525
37292200,524
37302247,524
37312262,524
37322310,522
37332356,520
37342374,511
37352423,518
37362469,507
37372485,512
37382532,513
37392580,509
37402596,510
37412640,505
37422684,501
37432729,498
37442751,508
37452803,506
37462855,509
37472874,511
37482921,508
37492964,512
37502978,512
37513022,512
37523066,512
37533080,513
37543122,512
37553168,507
37563185,512
37573233,507
37583281,514
37593299,510
37603347,511
37613395,509
37623414,508
37633467,507
37643519,508
37653539,511
37663592,501
37673643,508
37683689,509
37693702,510
37703746,512
37713793,503
37723812,507
37733860,505
37743907,503
37753923,506
37763968,508
37774012,501
37784023,508
37794067,506
37804111,506
37814127,498
37824173,501
37834219,501
37844234,501
37854277,497
37864320,498
37874331,500
37884374,499
37894420,497
37904429,502
37914473,501
37924515,508
37934561,508
37944577,514
37954621,510
37964667,516
37974687,515
37984734,526
37994784,523
38004805,523
38014857,516
38024907,519
38034925,518
38044972,518
38055019,508
38065036,511
38075083,507
38085131,506
38095146,506
38105193,506
38115239,505
38125257,495
38135303,500
38145349,500
38155367,507
38165412,504
38175458,504
38185502,505
38195517,507
38205564,503
38215614,512
38225631,512
38235678,508
38245727,512
38255746,511
38265795,508
38275844,507
38285860,513
38295910,512
38305957,514
38315976,513
38326025,504
38336072,509
38346086,510
38356132,503
38366175,511
38376187,508
38386234,504
38396282,508
38406302,507
38416349,511
38426395,501
38436443,503
38446460,507
38456509,503
38466555,505
38476570,512
38486617,509
38496665,503
38506685,508
38516738,508
38526791,505
38536811,507
38546859,510
38556907,499
38566927,506
38576978,506
38587028,509
38597045,507
38607092,510
38617142,509
38627162,505
38637214,508
38647265,520
38657285,520
38667335,521
38677384,523
38687432,528
38697450,528
38707496,527
38717542,523
38727558,520
38737605,519
38747654,520
38757671,512
38767717,513
38777763,510
38787778,516
38797823,507
38807870,507
38817886,505
38827932,508
38837979,508
38847996,499
38858044,510
38868089,506
38878104,506
38888149,503
38898192,509
38908205,510
38918249,509
38928296,511
38938342,510
38948359,511
38958406,510
38968452,508
38978469,514
38988519,509
38998568,502
39008586,511
39018637,510
39028686,503
39038699,504
39048745,507
39058793,507
39068808,502
39078853,506
39088897,502
39098912,508
39108954,504
39118997,509
39129012,510
39139057,509
39149103,506
39159118,500
39169164,508
39179210,507
39189253,507
39199269,506
39209313,505
39219360,510
39229374,508
39239419,508
39249464,509
39259482,508
39269534,512
39279589,514
39289612,509
39299668,518
39309723,517
39319748,519
39329803,523
39339859,525
39349880,532
39359929,525
39369974,527
39379990,524
39390040,522
39400089,517
39410107,521
39420155,516
39430205,515
39440252,514
39450273,512
39460326,507
39470375,500
39480394,506
39490443,502
39500491,503
39510510,503
39520558,505
39530604,506
39540621,504
39550669,509
39560717,507
39570734,510
39580778,513
39590822,503
39600840,510
39610890,513
39620937,512
39630951,508
39640996,508
39651042,509
39661061,510
39671107,509
39681150,509
39691197,506
39701213,508
39711258,504
39721304,504
39731319,510
39741367,508
39751414,497
39761428,494
39771474,507
39781517,508
39791532,503
39801580,508
39811628,504
39821648,511
39831696,505
39841747,511
39851766,504
39861816,507
39871864,506
39881881,511
39891932,506
39901979,511
39911996,511
39922045,511
39932095,510
39942146,514
39952166,514
39962216,513
39972267,523
39982287,516
39992336,523
40002383,525
40012400,529
40022446,527
40032492,530
40042507,523
40052553,524
40062604,524
40072622,520
40082672,519
40092720,513
40102735,515
40112785,514
40122834,513
40132852,504
40142901,510
40152950,504
40162967,510
40173014,508
40183063,499
40193110,509
40203128,499
40213177,508
40223228,506
40233246,507
40243296,510
40253342,509
40263356,508
40273403,503
40283454,513
40293471,506
40303516,512
40313564,504
40323581,503
40333625,512
40343673,511
40353687,509
40363736,501
40373783,502
40383799,508
40393847,507
40403894,503
40413909,500
40423954,501
40434002,507
40444052,510
40454069,508
40464118,507
40474166,507
40484181,510
40494228,505
40504274,506
40514283,505
40524333,505
40534382,509
40544400,508
40554449,510
40564501,505
40574519,503
40584572,504
40594624,509
40604643,500
40614695,504
40624744,504
40634763,508
40644813,508
40654862,517
40664877,520
40674921,522
40684964,526
40695009,525
40705026,524
40715074,525
40725122,520
40735139,523
40745185,519
40755232,521
40765251,520
40775296,520
40785343,518
40795364,514
40805414,513
40815465,506
40825486,507
40835539,505
40845591,508
40855609,507
40865654,502
40875701,508
40885715,508
40895759,505
40905805,504
40915822,508
40925867,511
40935913,506
40945959,514
40955976,513
40966023,511
40976068,508
40986086,508
40996133,505
41006178,513
41016197,503
41026246,511
41036298,504
41046318,499
41056366,507
41066413,509
41076428,510
41086473,504
41096518,508
41106528,503
41116570,497
41126613,507
41136626,503
41146669,506
41156712,510
41166722,506
41176768,506
41186812,504
41196859,501
41206874,507
41216921,507
41226969,509
41236983,507
41247030,511
41257078,508
41267096,510
41277143,509
41287189,504
41297206,507
41307255,507
41317303,507
41327315,504
41337362,509
41347408,521
41357422,522
41367471,521
41377518,524
41387535,531
41397583,531
41407635,526
41417653,527
41427704,526
41437758,522
41447810,524
41457832,520
41467885,520
41477936,515
41487960,516
41498013,507
41508067,507
41518089,511
41528142,506
41538197,505
41548221,505
41558273,505
41568322,502
41578342,507
41588392,503
41598443,507
41608463,508
41618515,505
41628565,507
41638581,504
41648629,511
41658680,507
41668701,506
41678753,507
41688802,512
41698855,509
41708872,503
41718921,501
41728970,501
41738987,508
41749037,508
41759084,502
41769100,506
41779149,509
41789196,505
41799211,508
41809256,507
41819303,500
41829319,501
41839369,508
41849418,505
41859435,507
41869484,504
41879534,503
41889550,500
41899597,509
41909642,499
41919658,507
41929705,509
41939755,505
41949803,509
41959822,509
41969867,509
41979916,506
41989936,508
41999986,503
42010035,510
42020051,508
42030098,507
42040146,508
42050164,517
42060212,520
42070258,521
42080273,527
42090317,521
42100362,530
42110377,522
42120424,528
42130473,528
42140489,528
42150534,522
42160580,521
42170597,513
42180642,519
42190691,509
42200738,511
42210754,507
42220800,507
42230848,510
42240865,503
42250913,506
42260961,505
42270979,496
42281025,501
42291072,508
42301087,508
42311133,504
42321181,504
42331199,509
42341249,509
42351296,511
42361313,512
42371361,508
42381408,506
42391421,506
42401466,501
42411512,503
42421529,506
42431576,507
42441625,510
42451675,509
42461694,503
42471747,504
42481803,501
42491825,505
42501882,501
42511938,507
42521963,502
42532013,503
42542063,506
42552079,507
42562124,506
42572166,500
42582180,503
42592227,505
42602271,504
42612285,503
42622329,507
42632372,504
42642385,507
42652433,505
42662478,500
42672495,508
42682540,506
42692584,500
42702631,511
42712647,502
42722696,504
42732746,507
42742766,510
42752815,503
42762864,513
42772881,513
42782928,519
42792976,525
42802994,527
42813039,520
42823086,520
42833103,526
42843145,526
42853192,528
42863210,523
42873258,526
42883310,522
42893332,513
42903380,515
42913429,506
42923448,510
42933496,504
42943545,508
42953594,503
42963611,508
42973658,504
42983706,504
42993725,507
43003773,499
43013824,506
43023848,504
43033901,498
43043954,506
43053973,508
43064025,508
43074076,499
43084096,501
43094145,506
43104194,502
43114213,504
43124260,510
43134308,501
43144326,508
43154375,507
43164424,498
43174444,508
43184494,502
43194540,503
43204585,501
43214598,505
43224647,505
43234695,503
43244713,503
43254764,505
43264809,507
43274828,499
43284874,506
43294922,509
43304944,508
43314996,506
43325045,508
43335065,507
43345117,500
43355166,506
43365184,505
43375229,507
43385277,504
43395296,499
43405348,504
43415402,501
43425422,510
43435476,505
43445527,506
43455577,502
43465597,501
43475650,504
43485704,506
43495726,511
43505776,507
43515828,515
43525851,512
43535904,518
43545956,521
43555974,520
43566025,525
43576077,531
43586098,528
43596148,527
43606199,520
43616220,526
43626270,520
43636320,515
43646337,512
43656386,514
43666437,514
43676459,511
43686514,502
43696569,498
43706621,503
43716642,504
43726699,496
43736751,499
43746773,498
43756824,505
43766877,506
43776901,504
43786956,510
43797010,505
43807036,510
43817089,512
43827140,503
43837155,511
43847203,506
43857255,510
43867276,505
43877327,508
43887379,508
43897399,507
43907455,503
43917510,505
43927533,507
43937585,500
43947636,505
43957686,504
43967706,502
43977759,498
43987814,506
43997838,501
44007892,504
44017945,503
44027968,501
44038023,505
44048078,509
44058103,502
44068158,500
44078213,509
44088238,504
44098293,503
44108351,507
44118377,508
44128432,505
44138482,507
44148504,504
44158552,509
44168606,505
44178629,508
44188682,499
44198736,504
44208789,507
44218811,510
44228865,505
44238919,508
44248942,515
44258997,522
44269050,523
44279074,526
44289127,527
44299180,528
44309205,527
44319259,528
44329312,524
44339334,521
44349390,515
44359446,515
44369470,514
44379524,512
44389578,510
44399602,505
44409658,513
44419712,508
44429734,509
44439787,503
44449839,500
44459894,507
44469920,503
44479975,501
44490028,500
44500050,501
44510102,505
44520157,509
44530183,506
44540237,507
44550293,506
44560316,509
44570371,510
44580427,512
44590450,505
44600501,511
44610554,503
44620575,506
44630627,511
44640674,508
44650694,510
44660744,502
44670796,503
44680816,508
44690863,501
44700913,502
44710966,503
44720989,506
44731040,506
44741094,504
44751117,506
44761169,504
44771221,504
44781242,505
44791297,507
44801352,504
44811374,507
44821429,508
44831485,508
44841510,505
44851564,507
44861613,502
44871636,499
44881690,505
44891742,499
44901766,503
44911817,507
44921866,505
44931885,502
44941931,501
44951980,507
44962028,509
44972043,518
44982096,497
44992151,520
45002177,521
45012236,527
45022293,532
45032316,525
45042369,532
45052421,529
45062439,528
45072489,523
45082541,524
45092561,525
45102610,519
45112659,518
45122676,509
45132728,518
45142781,510
45152804,507
45162852,509
45172904,501
45182922,502
45192972,505
45203023,500
45213074,506
45223094,501
45233144,508
45243194,502
45253213,509
45263262,507
45273313,506
45283333,509
45293383,511
45303434,509
45313454,503
45323505,509
45333552,502
45343572,509
45353624,508
45363672,510
45373695,503
45383747,507
45393799,507
45403817,507
45413869,506
45423920,508
45433942,507
45443992,507
45454045,505
45464101,505
45474120,500
45484171,508
45494225,507
45504247,502
45514300,507
45524352,508
45534375,508
45544429,500
45554481,507
45564503,504
45574556,512
45584609,506
45594631,506
45604685,511
45614739,507
45624762,507
45634814,505
45644868,504
45654891,509
45664946,508
45675000,509
45685025,504
45695081,508
45705136,510
45715187,507
45725209,512
45735260,513
45745311,523
45755330,519
45765382,528
45775433,533
45785455,532
45795506,535
45805562,527
45815584,532
45825639,530
45835691,529
45845711,526
45855761,519
45865812,511
45875832,513
45885884,509
45895937,513
45905957,503
45916006,509
45926055,506
45936074,500
45946126,504
45956177,508
45966223,506
45976238,505
45986285,505
45996334,510
46006354,506
46016400,508
46026447,510
46036465,504
46046514,506
46056565,510
46066586,510
46076643,509
46086696,504
46096714,508
46106764,505
46116816,509
46126840,504
46136894,510
46146943,508
46156959,508
46167009,508
46177059,507
46187078,505
46197129,506
46207179,505
46217230,499
46227247,508
46237296,506
46247345,507
46257363,505
46267413,508
46277463,501
46287483,504
46297532,503
46307581,500
46317601,506
46327654,504
46337702,510
46347723,508
46357771,509
46367820,509
46377839,507
46387892,507
46397944,509
46407966,503
46418018,506
46428067,500
46438085,503
46448135,508
46458184,502
46468233,508
46478252,506
46488300,510
46498347,513
46508363,524
46518411,523
46528457,519
46538475,530
46548521,532
46558572,533
46568591,534
46578639,527
46588687,527
46598702,525
46608754,518
46618806,517
46628826,516
46638881,512
46648933,508
46658951,503
46668999,501
46679050,500
46689066,494
46699114,502
46709161,495
46719206,505
46729225,496
46739271,503
46749316,503
46759332,509
46769379,508
46779426,510
46789442,509
46799486,509
46809533,504
46819550,508
46829596,504
46839642,504
46849659,512
46859706,506
46869754,506
46879769,500
46889818,503
46899865,499
46909882,502
46919930,499
46929977,501
46939990,501
46950036,497
46960074,500
46970119,502
46980135,499
46990182,505
47000229,507
47010247,506
47020294,497
47030342,498
47040360,500
47050411,505
47060461,509
47070479,506
47080527,505
47090574,504
47100591,506
47110642,503
47120690,505
47130710,499
47140760,506
47150811,505
47160832,508
47170884,506
47180938,502
47190958,506
47201005,504
47211050,508
47221096,510
47231114,507
47241161,500
47251209,511
47261225,512
47271269,517
47281312,518
47291328,525
47301374,525
47311420,524
47321435,532
47331481,530
47341526,530
47351542,527
47361589,520
47371634,515
47381651,517
47391694,514
47401742,515
47411757,512
47421804,512
47431850,501
47441866,505
47451914,500
47461962,504
47472007,500
47482025,498
47492071,500
47502115,508
47512130,505
47522174,504
47532222,501
47542240,508
47552283,512
47562331,504
47572349,505
47582393,512
47592440,511
47602457,505
47612504,505
47622550,511
47632565,510
47642612,507
47652659,504
47662674,508
47672722,503
47682771,503
47692787,505
47702836,505
47712880,495
47722926,503
47732941,499
47742987,502
47753036,504
47763053,499
47773102,504
47783148,502
47793164,502
47803212,496
47813260,506
47823277,501
47833327,506
47843376,506
47853395,509
47863441,502
47873489,507
47883508,506
47893558,506
47903606,504
47913620,506
47923667,505
47933715,500
47943730,500
47953776,507
47963825,507
47973873,503
47983887,510
47993936,518
48003986,519
48014004,524
48024054,527
48034105,523
48044123,527
48054171,532
48064221,529
48074238,530
48084288,528
48094337,523
48104355,521
48114398,514
48124444,511
48134465,513
48144514,508
48154563,508
48164580,502
48174629,498
48184674,505
48194691,501
48204738,505
48214785,505
48224833,501
48234850,503
48244898,509
48254943,510
48264961,508
48275009,511
48285057,509
48295071,510
48305121,511
48315169,505
48325186,510
48335234,511
48345282,509
48355300,503
48365347,505
48375397,505
48385415,501
48395464,497
48405510,504
48415525,502
48425569,503
48435616,500
48445633,499
48455680,500
48465726,512
48475771,505
48485784,496
48495828,496
48505872,503
48515886,499
48525932,501
48535977,503
48545991,506
48556036,508
48566082,508
48576099,504
48586146,504
48596195,505
48606212,509
48616260,506
48626304,508
48636318,510
48646365,504
48656414,508
48666435,504
48676483,507
48686526,512
48696537,508
48706583,518
48716632,520
48726680,526
48736697,522
48746743,532
48756789,536
48766806,532
48776852,536
48786897,527
48796912,532
48806958,526
48817006,518
48827025,519
48837073,517
48847122,514
48857137,506
48867186,504
48877241,504
48887261,506
48897315,507
48907366,505
48917389,502
48927443,501
48937493,505
48947508,500
48957551,501
48967597,510
48977642,501
48987656,503
48997699,509
49007742,510
49017758,506
49027803,507
49037849,507
49047863,508
49057907,507
49067950,510
49077964,512
49088009,509
49098053,511
49108066,502
49118111,502
49128158,506
49138172,507
49148219,504
49158269,503
49168291,507
49178342,504
49188389,501
49198406,507
49208450,507
49218491,505
49228535,508
49238550,506
49248596,502
49258637,510
49268645,499
49278684,506
49288722,507
49298730,502
49308772,509
49318815,507
49328826,507
49338868,508
49348915,507
49358927,509
49368972,502
49379016,506
49389029,506
49399076,510
49409119,508
49419134,518
49429182,522
49439229,528
49449245,524
49459292,534
49469339,534
49479386,531
49489405,533
49499454,532
49509505,528
49519526,521
49529576,524
49539624,517
49549643,510
49559693,510
49569744,508
49579762,507
49589812,506
49599862,504
49609877,505
49619919,503
49629960,497
49639973,500
49650021,501
49660065,505
49670081,501
49680130,502
49690174,501
49700189,511
49710235,503
49720280,509
49730325,507
49740338,512
49750386,513
49760431,509
49770447,513
49780493,508
49790538,506
49800553,509
49810599,503
49820648,502
49830662,508
49840708,500
49850753,499
49860771,505
49870815,498
49880865,504
49890883,500
49900934,502
49910986,498
49921006,507
49931058,506
49941112,506
49951129,503
49961176,503
49971220,504
49981263,509
49991277,505
50001322,506
50011373,502
50021393,506
50031441,509
50041495,507
50051514,509
50061565,500
50071617,516
50081640,501
50091688,504
50101738,503
50111756,504
50121807,508
50131859,506
50141880,508
50151931,518
50161985,521
50171998,525
50182042,521
50192088,531
50202102,526
50212148,531
50222196,528
50232241,532
50242256,528
50252302,519
50262350,518
50272366,518
50282411,508
50292451,509
50302465,509
50312510,509
50322553,505
50332564,507
50342607,499
50352655,496
50362673,506
50372722,503
50382771,505
50392788,504
50402834,504
50412880,505
50422898,509
50432946,506
50442994,512
50453012,508
50463060,503
50473106,507
50483152,508
50493170,512
50503217,509
50513268,510
50523287,510
50533337,504
50543385,505
50553400,509
50563449,508
50573500,499
50583517,502
50593567,507
50603618,501
50613634,504
50623683,507
50633731,504
50643753,504
50653807,502
50663859,508
50673882,499
50683936,502
50693990,503
50704009,507
50714060,501
50724114,501
50734167,508
50744184,504
50754232,507
50764280,504
50774298,507
50784347,507
50794393,504
50804410,506
50814457,505
50824504,503
50834521,504
50844571,508
50854623,510
50864642,506
50874692,512
50884741,519
50894757,520
50904804,521
50914862,526
50924885,526
50934936,528
50944990,528
50955010,529
50965065,524
50975122,526
50985178,524
50995204,519
51005261,510
51015318,508
51025344,506
51035400,511
51045455,504
51055475,505
51065525,507
51075573,502
51085586,506
51095632,503
51105680,499
51115695,501
51125740,501
51135784,502
51145802,503
51155849,506
51165897,511
51175914,512
51185959,509
51196007,511
51206029,512
51216080,508
51226133,508
51236184,506
51246206,501
51256258,507
51266310,505
51276331,504
51286381,504
51296430,506
51306451,498
51316501,502
51326554,501
51336573,506
51346620,501
51356669,504
51366686,507
51376732,505
51386781,506
51396799,508
51406847,509
51416896,505
51426914,508
51436963,508
51447013,508
51457033,511
51467083,508
51477132,499
51487180,502
51497196,505
51507239,509
51517283,499
51527296,506
51537342,507
51547388,505
51557404,504
51567449,501
51577494,504
51587509,506
51597556,516
51607602,515
51617615,517
51627656,523
51637701,528
51647718,529
51657763,531
51667811,531
51677828,535
51687873,528
51697919,531
51707939,524
51717988,522
51728038,513
51738086,520
51748105,513
51758152,512
51768198,510
51778211,504
51788257,506
51798304,500
51808320,507
51818368,507
51828418,506
51838436,506
51848484,504
51858533,503
51868551,507
51878607,501
51888658,504
51898676,510
51908725,508
51918773,510
51928785,509
51938827,505
51948873,510
51958888,507
51968932,506
51978979,509
51989028,502
51999043,508
52009091,507
52019140,509
52029159,503
52039204,501
52049250,508
52059264,504
52069309,505
52079356,508
52089372,500
52099418,504
52109466,505
52119480,506
52129527,506
52139577,500
52149596,505
52159646,505
52169698,501
52179722,504
52189773,501
52199824,505
52209846,504
52219898,509
52229951,504
52240003,499
52250023,505
52260076,510
52270130,506
52280150,506
52290203,509
52300254,507
52310279,502
52320332,512
52330385,517
52340407,513
52350458,523
52360512,527
52370537,533
52380591,532
52390642,533
52400663,533
52410715,524
52420766,528
52430788,523
52440840,526
52450894,517
52460916,522
52470967,517
52481019,510
52491073,512
52501094,510
52511143,510
52521192,508
52531210,508
52541261,506
52551312,507
52561330,505
52571379,505
52581427,509
52591443,507
52601488,506
52611533,502
52621547,511
52631593,506
52641638,511
52651653,508
52661699,503
52671747,508
52681761,509
52691807,508
52701847,506
52711860,504
52721903,509
52731947,505
52741994,505
52752012,506
52762060,506
52772110,509
52782127,504
52792176,503
52802224,509
52812239,510
52822284,504
52832331,506
52842346,502
52852391,507
52862432,506
52872444,507
52882491,508
52892538,506
52902554,508
52912599,505
52922644,510
52932658,508
52942706,502
52952752,509
52962767,502
52972812,503
52982856,506
52992900,505
53002911,507
53012954,502
53022998,498
53033011,505
53043053,508
53053097,511
53063108,508
53073155,509
53083200,519
53093216,520
53103264,527
53113311,529
53123323,533
53133369,528
53143416,531
53153430,529
53163474,533
53173517,525
53183531,517
53193574,519
53203621,518
53213637,512
53223682,512
53233728,511
53243773,506
53253786,507
53263830,501
53273871,500
53283879,501
53293920,497
53303963,504
53313976,507
53324022,505
53334067,505
53344082,500
53354130,504
53364177,508
53374192,510
53384236,506
53394280,511
53404295,510
53414337,512
53424380,512
53434394,508
53444439,509
53454483,508
53464496,503
53474539,507
53484581,505
53494622,503
53504636,505
53514682,503
53524731,505
53534747,505
53544793,504
53554841,500
53564857,506
53574903,503
53584947,504
53594964,496
53605010,505
53615056,503
53625073,504
53635120,495
53645165,496
53655180,504
53665227,496
53675276,506
53685289,504
53695339,504
53705387,500
53715402,507
53725444,505
53735485,501
53745528,507
53755543,505
53765588,500
53775633,501
53785648,508
53795693,504
53805740,503
53815754,511
53825796,512
53835841,517
53845851,518
53855892,524
53865934,525
53875943,529
53885987,528
53896032,524
53906047,531
53916094,527
53926139,524
53936151,518
53946194,517
53956238,518
53966251,515
53976295,510
53986340,507
53996390,508
54006409,507
54016456,497
54026503,506
54036517,509
54046560,500
54056603,505
54066616,505
54076663,504
54086710,509
54096723,511
54106765,513
54116802,512
54126810,510
54136850,511
54146891,507
54156900,509
54166937,512
54176976,515
54186987,514
54197028,508
54207068,509
54217077,511
54227118,513
54237159,505
54247201,506
54257210,504
54267250,508
54277291,507
54287303,504
54297344,509
54307387,508
54317396,504
54327438,508
54337480,504
54347491,510
54357535,508
54367577,508
54377589,507
54387635,509
54397679,508
54407691,509
54417736,510
54427781,509
54437794,509
54447839,509
54457883,508
54467895,508
54477935,503
54487976,507
54498014,510
54508022,509
54518062,508
54528103,508
54538113,512
54548149,511
54558190,518
54568202,520
54578242,524
54588284,523
54598296,528
54608335,532
54618376,528
54628386,527
54638425,525
54648463,523
54658475,525
54668518,520
54678556,510
54688566,511
54698607,513
54708647,508
54718658,507
54728702,508
54738744,503
54748788,501
54758799,498
54768843,501
54778886,503
54788896,501
54798938,505
54808977,508
54818989,501
54829030,503
54839071,509
54849081,509
54859120,511
54869161,509
54879171,511
54889210,513
54899250,509
54909260,513
54919299,508
54929338,509
54939342,506
54949381,504
54959419,501
54969427,506
54979465,509
54989504,507
54999543,505
55009551,498
55019592,499
55029636,500
55039652,501
55049698,504
55059738,503
55069751,501
55079798,507
55089844,510
55099857,502
55109903,506
55119948,508
55129962,508
55140004,507
55150045,511
55160057,505
55170095,504
55180135,506
55190145,506
55200184,510
55210224,501
55220234,508
55230276,509
55240320,508
55250364,512
55260378,512
55270424,516
55280469,518
55290484,519
55300528,526
55310574,528
55320592,530
55330638,533
55340679,532
55350692,529
55360733,531
55370773,526
55380787,526
55390830,524
55400874,520
55410889,512
55420937,512
55430988,511
55441010,509
55451058,509
55461105,510
55471120,506
55481168,504
55491214,499
55501259,503
55511276,497
55521322,504
55531366,499
55541377,509
55551420,501
55561464,506
55571481,508
55581528,502
55591577,511
55601594,505
55611642,506
55621690,507
55631709,509
55641757,509
55651802,507
55661817,507
55671861,502
55681908,506
55691923,505
55701966,501
55712012,502
55722029,504
55732076,507
55742122,506
55752169,504
55762180,505
55772220,502
55782262,503
55792276,504
55802318,502
55812359,508
55822371,506
55832414,508
55842456,501
55852465,506
55862507,503
55872549,503
55882563,507
55892609,502
55902652,505
55912667,509
55922713,506
55932758,507
55942772,504
55952815,508
55962859,504
55972872,503
55982916,501
55992961,506
56003006,510
56013021,509
56023066,513
56033113,521
56043130,521
56053178,527
56063225,526
56073242,527
56083290,526
56093336,532
56103353,528
56113401,526
56123450,525
56133470,523
56143515,512
56153561,512
56163578,512
56173622,511
56183665,511
56193678,510
56203722,510
56213767,503
56223783,508
56233830,507
56243874,503
56253919,499
56263936,503
56273982,507
56284028,505
56294046,507
56304095,502
56314142,509
56324159,504
56334207,503
56344251,509
56354267,510
56364312,506
56374354,505
56384365,510
56394408,512
56404450,504
56414463,508
56424506,507
56434546,499
56444560,508
56454606,503
56464652,505
56474668,506
56484712,506
56494757,507
56504805,508
56514820,504
56524865,501
56534908,505
56544921,505
56554966,500
56565011,509
56575026,506
56585070,507
56595114,507
56605126,508
56615168,505
56625210,506
56635225,508
56645272,508
56655320,508
56665335,507
56675383,502
56685431,507
56695445,503
56705486,502
56715526,505
56725539,506
56735585,507
56745632,514
56755679,510
56765695,522
56775737,522
56785781,527
56795795,524
56805841,531
56815888,530
56825903,524
56835949,528
56845996,518
56856014,521
56866064,522
56876111,517
56886128,516
56896175,510
56906224,504
56916240,501
56926285,507
56936328,505
56946341,506
56956387,506
56966432,506
56976445,499
56986492,504
56996539,506
57006588,508
57016606,508
57026651,510
57036696,501
57046711,510
57056758,508
57066803,510
57076816,503
57086858,507
57096904,505
57106920,506
57116966,509
57127011,509
57137028,499
57147077,509
57157126,505
57167141,503
57177184,505
57187229,494
57197245,501
57207288,503
57217333,508
57227347,505
57237391,504
57247433,504
57257476,505
57267488,504
57277533,506
57287576,501
57297591,507
57307635,501
57317679,508
57327692,502
57337733,504
57347778,499
57357793,505
57367836,506
57377880,500
57387894,510
57397936,507
57407977,499
57417988,500
57428032,507
57438076,507
57448088,505
57458129,501
57468169,508
57478184,507
57488232,512
57498276,516
57508317,521
57518330,525
57528372,524
57538418,521
57548434,533
57558478,532
57568522,528
57578538,526
57588586,526
57598633,520
57608647,518
57618693,511
57628737,516
57638748,507
57648785,506
57658829,505
57668842,509
57678891,504
57688939,505
57698957,504
57709004,496
57719050,498
57729067,506
57739114,510
57749155,505
57759199,506
57769214,507
57779262,504
57789306,510
57799322,510
57809367,504
57819415,510
57829432,505
57839482,505
57849528,511
57859545,510
57869596,510
57879645,510
57889661,507
57899710,507
57909755,499
57919772,504
57929822,502
57939870,501
57949886,507
57959929,498
57969968,503
57979983,497
57990030,499
58000076,506
58010125,501
58020144,506
58030193,499
58040242,506
58050260,501
58060308,500
58070353,504
58080370,504
58090416,506
58100457,503
58110472,499
58120516,504
58130558,502
58140567,510
58150611,499
58160656,499
58170667,499
58180710,501
58190754,508
58200769,512
58210816,508
58220863,519
58230881,517
58240929,525
58250975,525
58261016,526
58271032,521
58281079,528
58291128,528
58301146,520
58311195,521
58321244,513
58331266,520
58341318,509
58351367,508
58361383,504
58371427,508
58381472,500
58391488,503
58401537,506
58411587,502
58421605,500
58431651,503
58441698,506
58451715,501
58461762,499
58471808,508
58481824,509
58491873,503
58501919,508
58511964,510
58521979,508
58532022,511
58542068,502
58552084,512
58562134,506
58572181,502
58582198,504
58592240,507
58602283,503
58612297,508
58622342,503
58632385,501
58642397,497
58652441,505
58662485,506
58672501,506
58682547,505
58692591,502
58702603,504
58712647,510
58722688,508
58732702,501
58742748,509
58752794,504
58762840,507
58772855,501
58782900,507
58792942,504
58802957,510
58813002,507
58823047,509
58833062,502
58843105,502
58853149,505
58863171,509
58873223,507
58883277,512
58893299,512
58903352,519
58913407,522
58923432,518
58933487,523
58943532,531
58953547,526
58963593,529
58973642,524
58983662,523
58993708,524
59003758,520
59013803,518
59023820,513
59033872,516
59043919,510
59053937,507
59063982,506
59074025,504
59084039,506
59094086,497
59104134,502
59114152,501
59124202,505
59134248,502
59144262,499
59154310,508
59164359,509
59174377,504
59184425,508
59194473,504
59204491,513
59214539,510
59224586,511
59234601,503
59244650,503
59254697,508
59264743,505
59274761,508
59284808,508
59294854,502
59304871,505
59314917,506
59324964,508
59334981,503
59345027,504
59355076,502
59365093,503
59375145,507
59385195,503
59395209,502
59405253,506
59415299,507
59425315,501
59435362,501
59445409,504
59455423,506
59465469,509
59475514,500
59485525,508
59495575,509
59505621,506
59515668,499
59525684,502
59535730,506
59545777,500
59555793,509
59565843,508
59575894,512
59585915,514
59595964,521
59606009,526
59616020,529
59626062,527
59636106,532
59646121,528
59656164,528
59666209,530
59676223,527
59686266,524
59696315,522
59706336,524
59716388,520
59726439,517
59736458,512
59746504,506
59756548,508
59766591,506
59776605,506
59786652,498
59796697,502
59806713,504
59816759,501
59826808,501
59836824,505
59846870,506
59856914,504
59866927,504
59876970,507
59887010,503
59897022,509
59907068,501
59917113,510
59927127,507
59937170,508
59947216,503
59957234,501
59967280,507
59977323,505
59987337,504
59997382,506
60007428,503
60017473,507
60027487,506
60037526,502
60047564,506
60057572,507
60067619,505
60077664,504
60087683,507
60097731,501
60107777,505
60117794,504
60127840,508
60137888,506
60147901,500
60157943,507
60167988,500
60177998,498
60188041,505
60198088,506
60208105,506
60218152,504
60228198,505
60238215,509
60248261,504
60258308,508
60268355,516
60278372,513
60288416,522
60298461,528
60308470,519
60318516,528
60328564,528
60338582,521
60348628,527
60358674,522
60368688,522
60378733,521
60388778,515
60398793,518
60408839,509
60418884,512
60428903,508
60438952,501
60448997,509
60459013,502
60469059,503
60479108,504
60489126,495
60499175,506
60509223,501
60519271,502
60529287,504
60539330,509
60549375,503
60559389,506
60569434,502
60579478,508
60589493,511
60599536,505
60609579,511
60619593,502
60629640,510
60639687,507
60649704,503
60659748,509
60669789,504
60679800,507
60689846,508
60699891,499
60709907,500
60719955,507
60730003,498
60740017,503
60750059,507
60760103,505
60770150,505
60780162,505
60790207,505
60800253,501
60810269,504
60820315,499
60830360,505
60840373,505
60850419,503
60860463,500
60870477,506
60880522,503
60890566,500
60900580,504
60910624,503
60920668,505
60930682,509
60940726,507
60950770,508
60960781,508
60970820,508
60980862,516
60990873,512
61000916,519
61010959,525
61021002,527
61031015,527
61041055,525
61051098,528
61061108,526
61071151,528
61081196,528
61091211,524
61101255,520
61111299,512
61121309,514
61131352,510
61141396,503
61151409,507
61161451,507
61171493,501
61181505,504
61191548,504
61201590,504
61211597,503
61221639,503
61231681,503
61241692,500
61251735,498
61261775,508
61271816,505
61281829,505
61291870,508
61301913,504
61311923,509
61321963,511
61332007,509
61342018,509
61352061,500
61362103,509
61372115,500
61382155,508
61392203,505
61402218,502
61412260,503
61422304,505
61432319,507
61442363,499
61452408,497
61462422,499
61472466,505
61482512,506
61492527,502
61502572,505
61512617,499
61522662,508
61532676,507
61542720,504
61552765,506
61562777,499
61572821,509
61582865,499
61592878,507
61602922,504
61612968,508
61622983,506
61633025,500
61643069,505
61653085,508
61663133,508
61673183,509
61683198,508
61693243,513
61703287,518
61713301,523
61723346,520
61733389,524
61743400,532
61753443,529
61763484,533
61773522,530
61783531,527
61793571,523
61803611,519
61813616,520
61823653,517
61833695,512
61843709,511
61853753,504
61863797,506
61873812,501
61883857,506
61893898,504
61903913,508
61913963,502
61924011,503
61934026,506
61944076,506
61954121,505
61964136,505
61974184,506
61984231,509
61994246,505
62004293,510
62014337,508
62024382,508
62034399,508
62044449,509
62054495,508
62064513,510
62074560,507
62084604,506
62094615,508
62104658,507
62114700,505
62124712,504
62134757,500
62144802,499
62154815,504
62164861,505
62174907,502
62184923,506
62194976,505
62205021,508
62215036,505
62225079,507
62235125,508
62245137,506
62255179,505
62265220,502
62275261,506
62285274,511
62295319,508
62305364,500
62315378,503
62325424,505
62335468,505
62345483,500
62355526,506
62365568,507
62375580,504
62385629,502
62395676,514
62405692,514
62415738,514
62425782,514
62435796,525
62445838,531
62455881,524
62465894,537
62475937,537
62485980,534
62495995,533
62506035,533
62516077,528
62526118,525
62536128,521
62546171,517
62556216,520
62566229,517
62576274,510
62586317,511
62596330,511
62606371,509
62616413,505
62626425,507
62636471,502
62646514,504
62656528,506
62666573,506
62676621,507
62686637,509
62696679,500
62706724,507
62716738,506
62726778,508
62736819,504
62746828,510
62756870,509
62766912,509
62776955,510
62786966,505
62797011,505
62807058,507
62817074,507
62827119,502
62837165,508
62847179,510
62857224,504
62867269,500
62877283,508
62887327,506
62897369,500
62907380,508
62917422,505
62927467,499
62937479,499
62947526,509
62957573,504
62967588,500
62977633,506
62987676,503
62997691,505
63007739,511
63017787,504
63027832,501
63037844,506
63047890,503
63057936,504
63067948,505
63077989,504
63088029,500
63098039,501
63108082,499
63118125,504
63128134,510
63138177,512
63148224,513
63158242,519
63168289,521
63178333,527
63188350,526
63198399,529
63208446,536
63218463,529
63228509,531
63238554,531
63248569,526
63258615,524
63268661,524
63278706,521
63288719,519
63298761,511
63308808,514
63318821,507
63328868,502
63338914,501
63348934,498
63358981,504
63369029,504
63379047,502
63389093,499
63399139,501
63409156,508
63419200,505
63429242,505
63439257,505
63449305,507
63459349,507
63469362,511
63479408,508
63489454,508
63499470,507
63509516,505
63519562,505
63529610,508
63539627,508
63549676,509
63559726,508
63569745,502
63579793,506
63589842,501
63599860,504
63609909,504
63619955,505
63629973,498
63640020,501
63650065,504
63660081,505
63670125,505
63680169,501
63690180,507
63700225,510
63710272,503
63720286,508
63730332,508
63740381,503
63750401,504
63760452,507
63770502,507
63780551,504
63790571,503
63800620,507
63810674,504
63820693,510
63830746,506
63840798,506
63850818,504
63860872,499
63870920,502
63880939,510
63890989,511
63901037,517
63911056,515
63921105,523
63931155,521
63941173,531
63951221,535
63961266,530
63971280,528
63981329,531
63991377,530
64001396,524
64011445,521
64021490,519
64031533,514
64041547,513
64051591,512
64061635,511
64071654,512
64081705,506
64091758,503
64101779,500
64111831,499
64121884,508
64131905,507
64141959,503
64152009,504
64162029,504
64172078,509
64182125,504
64192143,511
64202190,510
64212239,508
64222256,507
64232302,506
64242346,510
64252364,510
64262414,509
64272466,500
64282515,505
64292535,503
64302584,505
64312630,506
64322647,508
64332697,505
64342746,506
64352766,505
64362817,499
64372866,505
64382887,506
64392941,500
64402996,503
64413022,507
64423077,507
64433128,507
64443150,506
64453201,503
64463249,501
64473271,506
64483324,509
64493375,502
64503396,506
64513446,507
64523495,510
64533547,507
64543571,503
64553623,498
64563671,508
64573689,507
64583738,505
64593790,507
64603809,507
64613859,509
64623911,513
64633931,517
64643980,519
64654027,523
64664043,530
64674089,528
64684137,533
64694156,530
64704206,532
64714255,529
64724276,526
64734328,528
64744381,526
64754405,517
64764459,521
64774512,513
64784562,513
64794578,510
64804627,505
64814675,504
64824694,497
64834744,507
64844792,507
64854810,507
64864860,505
64874907,506
64884921,507
64894967,500
64905017,507
64915035,504
64925083,508
64935130,508
64945145,511
64955193,510
64965242,511
64975259,505
64985308,505
64995356,503
65005377,501
65015427,508
65025479,507
65035531,504
65045550,508
65055601,507
65065651,504
65075671,507
65085723,501
65095775,500
65105796,507
65115849,504
65125901,506
65135925,501
65145978,506
65156031,502
65166050,497
65176101,505
65186155,505
65196176,503
65206228,499
65216281,507
65226304,505
65236353,510
65246400,508
65256414,501
65266462,496
65276510,502
65286560,501
65296581,505
65306633,501
65316686,508
65326709,508
65336760,505
65346813,509
65356834,513
65366887,515
65376936,525
65386956,525
65397006,531
65407055,535
65417072,533
65427121,532
65437171,534
65447190,533
65457239,528
65467291,527
65477315,517
65487368,516
65497417,516
65507436,513
65517485,509
65527534,508
65537582,509
65547599,507
65557646,508
65567691,500
65577705,501
65587748,503
65597794,501
65607810,501
65617858,506
65627902,501
65637918,506
65647963,504
65658009,504
65668025,506
65678070,511
65688116,506
65698131,504
65708176,506
65718221,505
65728235,501
65738279,509
65748324,509
65758342,504
65768390,498
65778436,503
65788482,504
65798498,507
65808545,498
65818593,507
65828609,506
65838659,504
65848705,504
65858720,508
65868768,505
65878817,504
65888838,500
65898889,505
65908935,508
65918950,502
65928996,507
65939042,507
65949064,509
65959116,510
65969176,503
65979204,507
65989265,508
65999326,503
66009355,504
66019411,503
66029466,507
66039521,508
66049545,502
66059602,502
66069659,504
66079686,505
66089746,509
66099802,513
66109821,521
66119872,524
66129928,530
66139954,532
66150009,534
66160064,529
66170087,537
66180137,535
66190185,522
66200201,522
66210247,525
66220294,518
66230310,515
66240357,512
66250405,513
66260422,510
66270469,508
66280517,501
66290563,499
66300578,506
66310624,506
66320666,496
66330681,507
66340728,503
66350774,506
66360790,507
66370836,505
66380884,504
66390898,506
66400943,509
66410988,504
66421002,502
66431044,507
66441090,510
66451107,509
66461154,509
66471202,501
66481223,507
66491273,508
66501319,503
66511334,506
66521381,504
66531427,501
66541470,503
66551484,506
66561531,501
66571579,501
66581595,507
66591642,505
66601689,505
66611703,503
66621750,504
66631799,506
66641815,502
66651866,506
66661917,506
66671939,507
66681991,508
66692040,506
66702058,505
66712107,502
66722155,508
66732173,509
66742225,503
66752272,502
66762290,509
66772338,506
66782387,506
66792435,506
66802455,505
66812502,512
66822547,513
66832564,512
66842612,518
66852663,526
66862680,530
66872726,531
66882768,535
66892783,534
66902833,531
66912884,532
66922906,525
66932959,521
66943008,519
66953030,522
66963081,513
66973131,510
66983149,513
66993199,510
67003247,508
67013269,498
67023321,501
67033373,499
67043425,504
67053445,502
67063495,504
67073547,505
67083569,505
67093622,500
67103668,504
67113686,505
67123736,507
67133781,503
67143797,510
67153845,511
67163892,511
67173909,508
67183957,510
67194005,503
67204023,507
67214074,501
67224123,502
67234140,506
67244189,504
67254242,501
67264266,505
67274311,499
67284359,503
67294411,505
67304432,503
67314484,502
67324534,505
67334555,505
67344602,508
67354650,505
67364671,509
67374723,505
67384774,502
67394792,509
67404845,510
67414899,502
67424919,504
67434969,500
67445014,511
67455031,506
67465076,507
67475123,504
67485138,510
67495186,500
67505231,500
67515250,507
67525296,503
67535344,503
67545394,509
67555414,510
67565462,515
67575511,519
67585528,521
67595576,522
67605624,527
67615641,533
67625688,528
67635737,531
67645755,531
67655803,528
67665849,527
67675865,515
67685911,517
67695954,515
67705968,509
67716012,509
67726056,509
67736071,509
67746119,503
67756167,501
67766184,501
67776233,502
67786281,499
67796324,501
67806335,504
67816379,505
67826425,500
67836441,508
67846490,509
67856539,512
67866555,509
67876605,510
67886648,506
67896663,511
67906708,510
67916752,501
67926768,502
67936815,507
67946857,506
67956871,507
67966914,503
67976959,506
67986972,499
67997018,508
68007062,502
68017076,505
68027120,501
68037168,508
68047216,506
68057233,501
68067283,505
68077334,500
68087353,508
68097400,506
68107450,505
68117468,502
68127519,509
68137565,509
68147581,504
68157626,504
68167674,505
68177691,505
68187740,503
68197787,507
68207805,506
68217851,509
68227896,508
68237913,510
68247960,506
68258007,505
68268024,508
68278070,508
68288118,508
68298168,514
68308184,520
68318231,522
68328274,526
68338288,525
68348331,527
68358376,532
68368388,530
68378435,531
68388480,530
68398495,519
68408544,521
68418591,512
68428612,516
68438662,512
68448710,507
68458730,505
68468779,500
68478828,496
68488847,500
68498893,498
68508940,502
68518959,493
68529003,502
68539049,502
68549095,504
68559110,506
68569157,507
68579202,506
68589220,508
68599266,510
68609313,511
68619328,508
68629375,511
68639420,507
68649431,510
68659475,509
68669521,507
68679538,509
68689583,507
68699630,506
68709642,506
68719686,502
68729730,504
68739742,507
68749786,506
68759831,503
68769842,501
68779888,505
68789936,502
68799983,505
68809997,498
68820041,503
68830086,497
68840101,507
68850147,509
68860194,509
68870210,505
68880259,509
68890307,506
68900327,502
68910374,506
68920424,501
68930439,508
68940489,505
68950537,501
68960554,509
68970605,501
68980651,501
68990667,506
69000712,506
69010758,504
69020773,512
69030819,520
69040864,521
69050908,523
69060924,529
69070972,527
69081020,528
69091038,530
69101083,527
69111124,522
69121135,524
69131182,518
69141231,518
69151247,512
69161292,512
69171337,510
69181351,509
69191398,504
69201448,503
69211467,504
69221514,505
69231559,500
69241577,502
69251622,504
69261671,497
69271688,500
69281741,503
69291792,505
69301842,507
69311859,506
69321910,502
69331957,507
69341974,505
69352020,503
69362066,499
69372085,506
69382132,499
69392178,500
69402195,508
69412241,505
69422286,506
69432301,505
69442346,506
69452391,506
69462402,496
69472445,499
69482490,506
69492506,506
69502550,501
69512595,503
69522609,499
69532653,505
69542701,502
69552752,509
69562770,504
69572814,502
69582859,508
69592873,504
69602924,505
69612978,505
69623000,499
69633049,505
69643096,504
69653109,504
69663153,503
69673194,502
69683208,503
69693254,506
69703297,505
69713314,505
69723360,509
69733406,514
69743419,513
69753463,518
69763509,522
69773527,531
69783578,530
69793626,528
69803674,528
69813691,523
69823741,526
69833790,518
69843806,513
69853851,516
69863897,513
69873909,513
69883954,510
69894004,508
69904022,506
69914069,500
69924115,501
69934128,499
69944173,500
69954218,501
69964233,502
69974280,504
69984327,507
69994341,507
70004388,508
70014433,507
70024449,505
70034497,511
70044546,510
70054596,508
70064614,507
70074663,506
70084711,506
70094725,511
70104769,507
70114813,511
70124826,505
70134872,511
70144916,509
70154926,504
70164969,505
70175011,503
70185030,508
70195081,508
70205128,503
70215141,501
70225182,500
70235224,508
70245238,503
70255282,500
70265325,500
70275339,505
70285384,502
70295428,506
70305472,501
70315486,505
70325529,508
70335572,507
70345585,505
70355629,508
70365672,510
70375688,506
70385728,509
70395771,508
70405785,512
70415829,512
70425875,515
70435891,519
70445941,522
70455984,521
70465999,525
70476045,532
70486092,535
70496109,534
70506157,532
70516206,524
70526223,524
70536269,528
70546315,522
70556364,518
70566378,517
70576420,514
70586467,514
70596487,510
70606537,507
70616583,506
70626600,507
70636644,502
70646690,505
70656705,500
70666751,507
70676794,499
70686811,507
70696856,506
70706903,509
70716916,507
70726963,508
70737010,511
70747024,509
70757067,510
70767113,512
70777126,510
70787172,508
70797218,510
70807264,504
70817279,508
70827324,506
70837370,508
70847382,509
70857428,501
70867475,510
70877488,508
70887530,502
70897573,509
70907586,502
70917632,504
70927685,509
70937702,507
70947743,505
70957787,509
70967799,506
70977838,507
70987878,508
70997889,505
71007930,506
71017975,506
71027986,506
71038026,503
71048066,503
71058112,503
71068126,509
71078173,506
71088217,508
71098231,515
71108277,509
71118323,518
71128340,523
71138389,523
71148437,528
71158453,526
71168498,532
71178545,530
71188557,529
71198599,527
71208644,525
71218659,523
71228704,518
71238750,514
71248765,512
71258814,507
71268861,504
71278876,510
71288923,506
71298972,504
71309020,503
71319033,502
71329077,499
71339121,500
71349134,507
71359179,507
71369221,502
71379232,501
71389276,504
71399319,506
71409331,508
71419373,509
71429413,510
71439424,506
71449468,507
71459509,510
71469519,507
71479560,510
71489600,506
71499611,505
71509652,506
71519694,508
71529705,506
71539746,509
71549788,501
71559827,507
71569841,503
71579888,510
71589936,507
71599949,504
71609994,508
71620038,508
71630051,505
71640093,500
71650140,506
71660151,505
71670195,504
71680238,506
71690251,501
71700294,501
71710337,502
71720347,506
71730390,505
71740430,507
71750442,513
71760485,504
71770526,514
71780538,510
71790580,523
71800622,522
71810664,519
71820673,529
71830712,528
71840749,524
71850758,529
71860804,525
71870849,530
71880860,522
71890906,516
71900947,517
71910958,513
71921003,514
71931049,509
71941062,509
71951103,509
71961147,504
71971161,507
71981207,503
71991253,501
72001269,504
72011316,504
72021363,507
72031378,508
72041426,507
72051471,509
72061516,503
72071532,511
72081578,511
72091623,509
72101639,506
72111686,508
72121729,512
72131738,506
72141780,502
72151823,500
72161836,505
72171882,510
72181926,506
72191937,504
72201981,508
72212021,499
72222030,505
72232072,507
72242121,508
72252138,505
72262184,500
72272235,501
72282255,509
72292305,506
72302356,507
72312407,508
72322428,508
72332476,501
72342519,510
72352532,507
72362576,508
72372623,499
72382635,507
72392679,500
72402720,503
72412738,515
72422786,507
72432830,510
72442841,520
72452882,521
72462923,528
72472934,530
72482978,529
72493024,532
72503039,528
72513084,528
72523128,530
72533144,522
72543189,521
72553230,518
72563273,519
72573287,514
72583330,506
72593374,509
72603388,512
72613433,506
72623478,503
72633493,507
72643537,504
72653581,497
72663591,501
72673635,502
72683676,508
72693690,507
72703734,507
72713777,507
72723790,505
72733830,501
72743869,508
72753879,502
72763923,507
72773966,508
72783976,508
72794021,506
72804066,510
72814113,501
72824129,502
72834174,501
72844221,506
72854238,508
72864284,502
72874331,506
72884346,504
72894392,506
72904438,507
72914450,501
72924497,504
72934541,506
72944553,510
72954599,507
72964643,507
72974655,508
72984697,506
72994741,511
73004757,499
73014806,502
73024852,503
73034861,501
73044907,506
73054953,495
73064996,507
73075011,512
73085053,511
73095094,511
73105105,517
73115149,519
73125189,522
73135200,530
73145242,531
73155287,529
73165299,530
73175345,533
73185393,527
73195405,527
73205450,520
73215494,517
73225506,520
73235548,511
73245584,514
73255595,514
73265635,508
73275678,509
73285691,505
73295733,508
73305780,498
73315826,501
73325843,501
73335889,500
73345943,502
73355963,504
73366008,502
73376053,508
73386063,507
73396105,511
73406147,511
73416164,503
73426212,509
73436255,511
73446273,502
73456318,506
73466360,509
73476373,501
73486413,498
73496458,501
73506472,506
73516517,509
73526560,504
73536573,510
73546614,511
73556654,507
73566691,505
73576701,508
73586743,510
73596783,507
73606790,500
73616829,509
73626869,505
73636880,505
73646921,504
73656960,508
73666969,508
73677003,507
73687041,508
73697049,502
73707086,503
73717121,505
73727131,502
73737169,507
73747210,507
73757218,506
73767256,505
73777292,508
73787303,511
73797341,514
73807379,518
73817421,510
73827434,520
73837477,523
73847520,530
73857534,532
73867578,535
73877624,526
73887638,526
73897682,527
73907724,529
73917735,527
73927780,517
73937821,521
73947831,519
73957875,513
73967920,510
73977933,512
73987977,509
73998019,504
74008032,507
74018072,503
74028116,503
74038126,502
74048165,503
74058206,499
74068245,504
74078256,507
74088298,501
74098340,501
74108355,506
74118398,507
74128443,505
74138456,505
74148495,509
74158537,504
74168551,501
74178595,509
74188641,507
74198655,504
74208696,508
74218734,507
74228741,497
74238781,506
74248819,507
74258831,501
74268875,506
74278915,506
74288926,498
74298969,504
74309012,506
74319054,506
74329065,505
74339109,498
74349155,505
74359170,499
74369209,507
74379255,507
74389271,505
74399317,508
74409364,504
74419381,507
74429428,503
74439476,504
74449495,503
74459549,509
74469606,507
74479627,506
74489676,506
74499723,502
74509739,500
74519788,499
74529835,503
74539848,513
74549893,518
74559937,517
74569984,515
74580000,522
74590045,523
74600089,529
74610104,528
74620153,524
74630202,527
74640220,524
74650268,523
74660314,524
74670327,515
74680373,516
74690421,512
74700437,509
74710481,503
74720530,510
74730547,506
74740594,506
74750639,504
74760654,504
74770702,505
74780746,498
74790762,499
74800808,508
74810854,507
74820900,504
74830914,502
74840962,508
74851011,502
74861028,504
74871073,505
74881122,507
74891136,503
74901183,510
74911230,508
74921247,506
74931293,507
74941340,508
74951357,501
74961407,508
74971458,500
74981477,502
74991525,506
75001572,504
75011591,505
75021639,507
75031688,499
75041703,499
75051750,500
75061799,502
75071848,505
75081865,507
75091914,506
75101963,508
75111982,506
75122032,504
75132077,508
75142094,507
75152142,508
75162191,501
75172207,505
75182255,504
75192302,508
75202314,505
75212352,505
75222395,506
75232406,508
75242448,510
75252493,506
75262507,502
75272555,513
75282601,514
75292617,515
75302665,515
75312713,520
75322759,519
75332773,531
75342818,524
75352863,532
75362880,528
75372926,528
75382972,520
75392987,519
75403031,518
75413076,517
75423093,516
75433138,510
75443185,509
75453202,508
75463249,510
75473293,504
75483300,504
75493339,504
75503381,507
75513394,506
75523438,503
75533481,505
75543490,499
75553534,507
75563575,507
75573617,508
75583632,507
75593677,509
75603723,508
75613741,505
75623787,511
75633833,505
75643847,507
75653895,510
75663942,508
75673960,501
75684005,505
75694051,505
75704069,508
75714115,500
75724162,502
75734180,507
75744228,506
75754277,502
75764296,499
75774347,503
75784395,504
75794413,510
75804461,509
75814511,511
75824561,506
75834582,508
75844631,506
75854677,505
75864693,504
75874739,508
75884783,505
75894800,505
75904846,504
75914889,504
75924905,499
75934954,499
75945002,503
75955018,497
75965066,508
75975110,508
75985128,499
75995177,505
76005221,510
76015237,512
76025283,515
76035331,520
76045347,520
76055397,524
76065447,530
76075494,529
76085509,532
76095554,525
76105602,530
76115618,524
76125664,519
76135705,521
76145718,519
76155768,517
76165816,514
76175833,513
76185882,508
76195928,505
76205943,512
76215988,503
76226031,506
76236046,499
76246089,499
76256135,507
76266151,502
76276196,502
76286240,501
76296256,504
76306305,507
76316353,506
76326400,506
76336414,501
76346453,510
76356498,508
76366512,501
76376557,507
76386601,511
76396617,510
76406664,508
76416712,502
76426723,503
76436770,501
76446818,502
76456834,507
76466879,503
76476925,504
76486938,502
76496981,503
76507023,499
76517035,508
76527078,510
76537125,508
76547137,509
76557180,508
76567224,508
76577266,499
76587277,505
76597320,504
76607362,509
76617375,506
76627419,503
76637464,503
76647482,506
76657526,502
76667571,509
76677584,502
76687628,508
76697673,507
76707687,507
76717728,505
76727775,505
76737793,511
76747841,505
76757889,505
76767908,510
76777954,521
76788003,525
76798021,521
76808068,527
76818114,528
76828158,530
76838171,531
76848220,524
76858266,529
76868283,523
76878330,515
76888382,518
76898403,513
76908452,511
76918494,512
76928508,509
76938552,505
76948598,499
76958612,500
76968656,505
76978699,497
76988715,500
76998760,499
77008804,499
77018821,496
77028869,499
77038916,496
77048931,504
77058979,500
77069026,509
77079077,509
77089096,506
77099145,507
77109194,507
77119213,503
77129261,500
77139310,503
77149328,499
77159377,509
77169423,508
77179442,508
77189490,498
77199535,498
77209549,501
77219592,504
77229643,499
77239666,507
77249721,506
77259777,503
77269803,502
77279861,504
77289918,504
77299943,504
77309997,498
77320050,501
77330102,505
77340124,500
77350177,502
77360231,508
77370255,504
77380302,502
77390351,502
77400367,504
77410414,503
77420461,504
77430480,502
77440532,505
77450583,505
77460603,505
77470656,507
77480708,502
77490727,505
77500776,506
77510826,508
77520843,507
77530891,514
77540941,517
77550958,524
77561006,528
77571055,526
77581104,529
77591120,529
77601169,531
77611217,527
77621237,526
77631283,522
77641331,522
77651345,515
77661391,514
77671436,511
77681452,512
77691498,511
77701545,504
77711560,508
77721603,506
77731649,504
77741666,507
77751712,501
77761757,504
77771772,504
77781817,505
77791863,500
77801881,505
77811928,508
77821973,506
77832019,508
77842035,506
77852082,510
77862128,509
77872143,505
77882189,512
77892235,505
77902250,504
77912294,500
77922334,502
77932345,499
77942389,501
77952430,504
77962444,503
77972486,505
77982530,505
77992543,506
78002583,503
78012622,501
78022634,501
78032678,499
78042723,505
78052735,508
78062777,500
78072821,505
78082865,505
78092878,505
78102918,503
78112959,506
78122974,507
78133022,506
78143072,506
78153093,502
78163138,508
78173179,505
78183192,505
78193235,508
78203280,504
78213291,499
78223335,507
78233378,507
78243391,505
78253435,510
78263479,511
78273492,522
78283533,523
78293574,522
78303586,523
78313630,523
78323674,531
78333721,532
78343736,524
78353779,529
78363822,519
78373834,520
78383879,517
78393922,514
78403937,514
78413980,515
78424021,506
78434033,511
78444076,501
78454115,506
78464129,501
78474178,502
78484229,505
78494250,499
78504300,489
78514351,498
78524369,500
78534412,499
78544453,508
78554464,504
78564506,512
78574548,509
78584592,514
78594604,509
78604644,514
78614685,511
78624698,512
78634741,504
78644783,513
78654796,508
78664839,506
78674883,506
78684893,499
78694937,499
78704980,499
78714995,508
78725039,510
78735087,505
78745102,498
78755146,508
78765188,508
78775201,509
78785242,508
78795283,506
78805297,509
78815341,506
78825388,501
78835437,507
78845451,508
78855496,507
78865539,504
78875554,508
78885599,507
78895645,508
78905663,507
78915710,508
78925757,511
78935773,505
78945817,502
78955865,506
78965879,508
78975924,503
78985966,507
78995977,510
79006021,507
79016066,514
79026081,520
79036127,520
79046173,527
79056190,523
79066233,528
79076279,535
79086320,528
79096332,526
79106377,529
79116423,529
79126439,515
79136484,522
79146529,517
79156544,512
79166591,509
79176636,508
79186647,508
79196692,504
79206736,508
79216750,502
79226794,504
79236840,505
79246857,498
79256905,504
79266950,508
79276967,506
79287014,502
79297058,510
79307075,510
79317122,507
79327168,507
79337213,510
79347229,508
79357277,511
79367323,507
79377339,507
79387385,506
79397430,501
79407444,504
79417489,502
79427534,506
79437549,507
79447597,507
79457639,505
79467651,505
79477698,508
79487745,499
79497759,504
79507805,502
79517852,506
79527870,508
79537917,500
79547964,506
79557983,505
79568030,505
79578076,504
79588123,504
79598135,503
79608180,501
79618226,504
79628239,503
79638284,506
79648327,508
79658340,499
79668386,506
79678430,488
79688443,503
79698487,507
79708531,509
79718543,511
79728586,510
79738628,507
79748642,510
79758687,512
79768728,512
79778741,520
79788788,520
79798834,527
79808851,527
79818897,532
79828935,536
79838977,537
79848990,531
79859034,526
79869079,530
79879095,529
79889139,527
79899186,526
79909201,521
79919245,520
79929288,509
79939303,512
79949349,506
79959394,501
79969405,505
79979448,508
79989491,499
79999504,504
80009552,502
80019599,506
80029613,502
80039658,507
80049703,508
80059718,501
80069765,508
80079812,507
80089857,508
80099874,504
80109921,512
80119970,507
80129987,509
80140036,508
80150084,510
80160098,508
80170146,507
80180190,508
80190207,506
80200254,503
80210302,507
80220318,506
80230366,502
80240413,507
80250427,510
80260470,501
80270514,502
80280529,509
80290571,505
80300616,505
80310628,506
80320670,502
80330713,503
80340757,510
80350771,504
80360813,503
80370857,503
80380872,506
80390918,509
80400961,500
80410974,503
80421017,506
80431062,509
80441078,508
80451121,508
80461164,502
80471178,500
80481222,503
80491268,506
80501283,505
80511328,504
80521371,506
80531383,507
80541423,505
80551464,498
80561479,507
80571521,507
80581565,514
80591609,512
80601623,510
80611669,520
80621714,521
80631730,525
80641772,528
80651810,530
80661816,532
80671857,534
80681899,525
80691911,529
80701955,521
80711996,521
80722009,513
80732052,514
80742093,515
80752105,513
80762149,512
80772191,509
80782204,503
80792249,509
80802295,505
80812309,508
80822354,501
80832399,504
80842447,499
80852463,501
80862508,504
80872554,506
80882567,500
80892612,510
80902660,511
80912674,511
80922718,509
80932764,512
80942777,507
80952822,511
80962866,511
80972880,510
80982926,506
80992969,507
81002984,504
81013030,506
81023076,507
81033092,507
81043137,500
81053182,505
81063199,505
81073243,507
81083285,507
81093330,502
81103344,508
81113390,508
81123437,508
81133453,508
81143496,503
81153538,508
81163548,501
81173592,505
81183639,505
81193653,504
81203696,507
81213741,510
81223758,509
81233805,502
81243852,507
81253866,507
81263908,503
81273949,500
81283963,504
81294008,510
81304055,507
81314070,510
81324113,505
81334156,505
81344205,499
81354221,504
81364270,506
81374321,503
81384340,506
81394388,515
81404440,521
81414459,520
81424508,528
81434558,529
81444580,528
81454630,529
81464683,530
81474704,533
81484752,533
81494799,523
81504815,526
81514858,517
81524903,517
81534919,512
81544962,511
81555003,516
81565015,508
81575057,501
81585101,508
81595144,503
81605156,502
81615201,500
81625246,504
81635258,504
81645302,503
81655347,508
81665361,508
81675406,506
81685451,511
81695468,508
81705514,507
81715559,503
81725572,506
81735617,512
81745658,508
81755665,505
81765704,504
81775743,503
81785752,509
81795793,507
81805834,502
81815845,505
81825890,506
81835931,499
81845974,505
81855984,509
81866025,507
81876068,506
81886080,508
81896118,500
81906161,508
81916176,507
81926219,507
81936265,502
81946280,506
81956322,507
81966367,505
81976385,505
81986433,501
81996481,506
82006495,507
82016540,507
82026586,502
82036600,508
82046646,507
82056691,507
82066705,506
82076748,502
82086791,507
82096835,504
82106848,509
82116894,506
82126937,502
82136946,499
82146990,508
82157038,501
82167054,508
82177102,511
82187147,516
82197158,514
82207200,519
82217244,524
82227262,524
82237309,531
82247356,532
82257374,533
82267422,533
82277467,534
82287484,528
82297534,525
82307580,526
82317595,518
82327644,515
82337694,517
82347744,514
82357766,511
82367815,511
82377860,510
82387875,509
82397918,505
82407965,506
82417978,504
82428023,507
82438071,504
82448087,500
82458132,507
82468173,501
82478184,510
82488229,508
82498273,509
82508285,506
82518329,507
82528373,507
82538384,509
82548425,504
82558466,510
82568479,510
82578524,511
82588570,506
82598613,509
82608624,507
82618668,503
82628711,491
82638723,504
82648767,505
82658810,505
82668824,507
82678868,504
82688913,509
82698929,513
82708969,513
82719012,509
82729023,504
82739063,508
82749106,511
82759120,508
82769162,516
82779203,501
82789212,507
82799250,508
82809291,508
82819302,508
82829344,501
82839389,507
82849434,507
82859449,507
82869493,506
82879538,505
82889552,503
82899596,501
82909637,502
82919652,507
82929696,505
82939737,510
82949748,508
82959787,514
82969822,515
82979829,517
82989865,521
82999903,518
83009916,522
83019957,529
83030000,523
83040009,535
83050048,531
83060089,534
83070099,525
83080141,526
83090184,521
83100229,521
83110243,520
83120287,513
83130332,512
83140343,504
83150383,512
83160427,505
83170441,508
83180487,505
83190534,506
83200552,507
83210599,506
83220645,501
83230660,504
83240708,508
83250756,505
83260774,511
83270822,509
83280872,511
83290891,512
83300942,505
83310989,505
83321007,503
83331056,508
83341106,510
83351157,501
83361176,504
83371228,508
83381279,502
83391295,505
83401345,501
83411392,503
83421406,503
83431454,499
83441502,504
83451520,499
83461575,506
83471628,502
83481646,501
83491692,505
83501743,499
83511756,503
83521802,501
83531853,501
83541874,502
83551932,498
83561980,504
83571997,506
83582046,505
83592096,507
83602147,506
83612164,510
83622214,506
83632263,502
83642280,508
83652327,507
83662379,503
83672400,505
83682452,505
83692500,502
83702519,506
83712570,507
83722623,503
83732642,503
83742693,513
83752743,503
83762761,515
83772808,522
83782854,527
83792870,528
83802918,528
83812961,528
83822975,531
83833022,532
83843068,528
83853115,526
83863130,527
83873176,524
83883223,517
83893242,517
83903290,513
83913336,514
83923355,510
83933404,509
83943452,510
83953469,499
83963517,499
83973563,503
83983582,501
83993630,506
84003676,506
84013689,500
84023732,507
84033775,507
84043787,509
84053832,507
84063879,509
84073895,512
84083940,504
84093986,509
84104030,512
84114043,509
84124089,504
84134137,507
84144154,506
84154200,506
84164247,501
84174262,504
84184311,507
84194358,502
84204376,505
84214425,505
84224475,502
84234492,505
84244538,503
84254586,500
84264603,505
84274652,500
84284706,502
84294728,508
84304783,505
84314837,503
84324862,500
84334912,506
84344959,506
84355002,503
84365014,503
84375056,507
84385098,505
84395109,507
84405151,505
84415192,506
84425206,504
84435254,499
84445303,505
84455315,506
84465358,506
84475401,503
84485414,508
84495457,503
84505500,511
84515513,515
84525554,511
84535595,518
84545604,524
84555647,523
84565693,530
84575706,526
84585747,532
84595791,524
84605837,530
84615853,528
84625902,520
84635950,518
84645969,520
84656017,510
84666062,512
84676077,509
84686120,511
84696169,506
84706186,500
84716232,505
84726278,505
84736290,503
84746333,505
84756377,503
84766392,506
84776435,508
84786475,508
84796483,506
84806530,508
84816576,510
84826588,507
84836635,510
84846680,504
84856724,507
84866736,510
84876781,504
84886825,505
84896839,501
84906883,505
84916930,510
84926948,505
84936993,499
84947038,505
84957051,500
84967095,507
84977139,510
84987152,502
84997193,508
85007236,504
85017250,507
85027293,507
85037339,505
85047356,502
85057401,506
85067448,508
85077462,501
85087507,509
85097553,503
85107600,506
85117617,509
85127666,506
85137714,510
85147732,501
85157778,508
85167827,506
85177844,507
85187888,503
85197934,507
85207949,507
85217998,506
85228047,503
85238065,512
85248113,513
85258161,517
85268176,516
85278226,522
85288273,522
85298291,525
85308337,532
85318386,529
85328403,529
85338449,529
85348497,521
85358544,522
85368557,519
85378606,517
85388654,517
85398672,505
85408723,504
85418772,502
85428791,506
85438841,501
85448891,503
85458908,505
85468954,502
85478997,504
85489011,501
85499057,508
85509103,501
85519118,509
85529165,509
85539212,510
85549230,507
85559278,511
85569327,511
85579349,505
85589398,507
85599446,512
85609495,511
85619512,510
85629560,507
85639607,499
85649626,505
85659674,506
85669724,503
85679743,503
85689790,503
85699840,505
85709861,501
85719911,506
85729960,499
85739980,504
85750031,504
85760081,505
85770100,499
85780153,505
85790204,505
85800224,504
85810274,508
85820324,500
85830344,503
85840396,507
85850447,509
85860498,502
85870518,510
85880567,509
85890618,506
85900638,506
85910687,506
85920739,502
85930755,503
85940802,508
85950849,507
85960866,518
85970914,519
85980960,524
85990978,518
86001026,527
86011074,531
86021091,530
86031140,528
86041189,527
86051210,528
86061262,525
86071312,521
86081328,521
86091374,510
86101420,512
86111468,509
86121483,511
86131526,503
86141573,505
86151589,505
86161634,504
86171681,507
86181699,500
86191747,504
86201796,502
86211817,505
86221869,508
86231922,505
86241941,508
86251994,501
86262045,511
86272066,508
86282118,509
86292165,510
86302181,507
86312231,510
86322279,507
86332297,508
86342347,508
86352392,507
86362436,505
86372454,506
86382502,507
86392548,508
86402566,508
86412615,498
86422666,503
86432685,508
86442734,505
86452782,499
86462798,504
86472847,508
86482894,505
86492912,509
86502962,503
86513016,504
86523044,499
86533103,505
86543161,505
86553181,505
86563230,501
86573279,510
86583298,506
86593346,509
86603394,503
86613442,506
86623459,505
86633507,501
86643551,508
86653570,511
86663621,514
86673668,524
86683685,521
86693730,528
86703776,531
86713792,531
86723843,534
86733895,530
86743915,527
86753967,528
86764018,523
86774039,517
86784092,519
86794143,511
86804163,516
86814211,504
86824256,515
86834274,502
86844324,503
86854373,504
86864421,500
86874441,505
86884491,508
86894542,506
86904558,507
86914603,501
86924647,504
86934664,505
86944713,510
86954762,504
86964779,505
86974824,510
86984872,508
86994890,503
87004939,509
87014986,512
87025005,498
87035055,495
87045102,504
87055117,509
87065166,502
87075216,507
87085238,507
87095291,504
87105341,513
87115392,504
87125411,510
87135458,508
87145503,512
87155521,507
87165572,510
87175619,510
87185637,507
87195689,504
87205741,509
87215765,503
87225816,501
87235868,506
87245888,505
87255939,507
87265989,505
87276010,505
87286059,504
87296111,504
87306133,507
87316184,504
87326237,508
87336258,510
87346314,515
87356370,511
87366422,519
87376446,516
87386500,527
87396558,531
87406581,529
87416630,526
87426676,531
87436692,528
87446738,532
87456785,521
87466800,523
87476848,517
87486896,512
87496912,517
87506961,513
87517008,509
87527024,509
87537071,504
87547114,508
87557128,508
87567170,505
87577214,501
87587231,502
87597278,507
87607326,507
87617375,500
87627389,506
87637435,508
87647484,504
87657504,510
87667549,506
87677594,506
87687606,511
87697652,508
87707699,507
87717713,509
87727759,508
87737808,509
87747826,510
87757871,504
87767916,510
87777930,502
87787975,503
87798019,509
87808030,502
87818072,508
87828115,509
87838131,505
87848175,505
87858220,507
87868265,502
87878281,507
87888325,504
87898372,508
87908388,504
87918431,503
87928475,506
87938489,503
87948528,508
87958576,502
87968593,507
87978641,507
87988686,506
87998701,506
88008748,502
88018796,499
88028812,504
88038862,509
88048910,508
88058926,512
88068972,514
88079013,513
88089029,522
88099075,521
88109121,525
88119169,529
88129187,527
88139233,531
88149281,529
88159298,531
88169344,524
88179393,528
88189409,520
88199458,515
88209505,516
88219524,512
88229572,507
88239619,511
88249637,511
88259688,508
88269738,508
88279758,505
88289804,507
88299851,506
88309870,502
88319919,500
88329967,504
88339983,503
88350026,500
88360074,505
88370119,505
88380134,504
88390179,509
88400224,509
88410239,508
88420285,510
88430331,504
88440347,503
88450392,507
88460437,508
88470454,510
88480498,509
88490539,506
88500553,502
88510598,506
88520643,499
88530661,502
88540707,506
88550751,506
88560765,500
88570809,504
88580854,503
88590865,500
88600909,503
88610954,505
88620999,502
88631011,506
88641057,506
88651103,500
88661120,504
88671166,500
88681211,500
88691229,503
88701275,508
88711323,504
88721342,503
88731393,504
88741440,501
88751459,507
88761506,505
88771551,507
88781563,510
88791606,506
88801648,510
88811662,513
88821707,519
88831754,520
88841771,527
88851820,526
88861866,529
88871912,535
88881926,527
88891972,530
88902016,528
88912032,517
88922075,524
88932118,516
88942131,520
88952174,510
88962218,511
88972230,513
88982274,510
88992318,511
89002332,508
89012373,502
89022418,505
89032435,505
89042479,506
89052522,503
89062536,504
89072580,499
89082629,508
89092649,508
89102699,508
89112751,508
89122799,504
89132814,503
89142858,505
89152905,507
89162921,508
89172968,502
89183016,506
89193034,505
89203082,501
89213130,506
89223146,498
89233195,506
89243242,504
89253260,503
89263309,504
89273358,504
89283376,506
89293423,504
89303470,502
89313486,506
89323533,506
89333579,506
89343595,506
89353641,509
89363684,504
89373727,506
89383742,507
89393790,504
89403833,507
89413845,501
89423888,503
89433931,499
89443944,502
89453991,500
89464036,504
89474049,502
89484095,503
89494139,507
89504155,503
89514199,508
89524246,504
89534265,510
89544314,515
89554363,515
89564380,516
89574429,518
89584476,528
89594493,528
89604543,536
89614588,533
89624637,532
89634655,526
89644703,528
89654751,526
89664769,524
89674815,520
89684863,518
89694880,510
89704927,508
89714970,510
89724989,508
89735036,501
89745081,508
89755095,499
89765138,505
89775185,502
89785203,507
89795252,506
89805303,504
89815320,505
89825369,500
89835419,498
89845437,505
89855487,504
89865533,509
89875576,509
89885588,503
89895633,506
89905682,510
89915699,507
89925746,509
89935794,508
89945811,500
89955857,503
89965903,503
89975918,506
89985964,498
89996010,505
90006020,499
90016063,506
90026109,501
90036124,500
90046170,498
90056216,510
90066233,506
90076279,507
90086323,503
90096336,508
90106381,502
90116426,510
90126476,508
90136493,510
90146539,508
90156585,511
90166601,509
90176647,510
90186698,508
90196717,505
90206769,509
90216819,506
90226840,508
90236890,502
90246942,500
90256959,501
90267009,500
90277058,502
90287077,510
90297124,503
90307173,507
90317191,515
90327239,519
90337287,526
90347304,522
90357351,532
90367400,537
90377448,534
90387469,538
90397517,534
90407566,532
90417585,530
90427629,525
90437676,518
90447692,517
90457736,518
90467780,516
90477793,512
90487840,512
90497886,506
90507902,507
90517947,505
90527995,505
90538013,498
90548057,505
90558101,506
90568117,501
90578165,498
90588212,505
90598228,504
90608274,503
90618317,509
90628365,505
90638382,514
90648430,506
90658477,509
90668494,509
90678541,507
90688587,510
90698601,503
90708648,504
90718696,508
90728716,502
90738767,502
90748816,504
90758832,498
90768880,511
90778928,504
90788942,502
90798987,505
90809033,506
90819049,500
90829096,508
90839142,506
90849161,507
90859211,504
90869259,502
90879309,502
90889326,506
90899374,507
90909420,509
90919432,502
90929475,508
90939521,505
90949540,510
90959596,507
90969649,504
90979671,507
90989722,509
90999775,505
91009798,508
91019849,502
91029903,504
91039928,503
91049982,500
91060037,504
91070056,509
91080103,511
91090149,515
91100165,511
91110214,523
91120264,523
91130314,529
91140327,532
91150371,535
91160419,531
91170439,533
91180490,527
91190539,529
91200562,525
91210615,517
91220665,514
91230686,514
91240739,512
91250790,516
91260813,508
91270866,507
91280917,503
91290934,508
91300980,500
91311029,503
91321052,498
91331105,496
91341156,504
91351176,504
91361227,502
91371277,504
91381329,503
91391350,510
91401400,509
91411448,512
91421471,505
91431527,509
91441583,507
91451608,503
91461664,504
91471717,504
91481740,505
91491792,502
91501842,503
91511860,502
91521905,503
91531953,503
91541969,497
91552013,497
91562060,498
91572077,499
91582124,502
91592178,508
91602201,507
91612260,505
91622311,507
91632361,504
91642384,506
91652432,505
91662486,506
91672509,502
91682563,498
91692617,510
91702640,504
91712692,499
91722744,506
91732765,506
91742814,504
91752862,503
91762885,509
91772938,507
91782988,504
91793008,505
91803058,503
91813112,502
91823134,506
91833185,499
91843236,503
91853254,499
91863300,510
91873347,507
91883395,514
91893412,516
91903460,522
91913506,520
91923524,530
91933566,534
91943607,534
91953621,531
91963668,535
91973712,530
91983728,523
91993772,520
92003819,527
92013832,520
92023877,517
92033926,516
92043943,512
92053989,507
92064034,501
92074048,508
92084097,507
92094151,501
92104173,495
92114224,503
92124274,501
92134327,503
92144346,502
92154392,505
92164438,505
92174452,508
92184495,508
92194538,509
92204551,510
92214592,507
92224631,506
92234641,509
92244685,510
92254731,505
92264745,508
92274790,507
92284833,501
92294846,503
92304888,507
92314930,500
92324946,507
92334993,509
92345041,503
92355058,507
92365106,499
92375154,508
92385200,508
92395216,502
92405262,509
92415307,504
92425322,507
92435370,510
92445419,511
92455438,508
92465487,507
92475535,510
92485553,501
92495598,509
92505646,508
92515664,508
92525711,503
92535759,511
92545777,506
92555822,503
92565867,502
92575885,506
92585932,506
92595979,506
92605995,506
92616042,510
92626089,510
92636135,512
92646152,516
92656200,512
92666247,520
92676262,525
92686305,527
92696345,531
92706356,535
92716399,533
92726439,531
92736450,529
92746498,527
92756545,525
92766561,518
92776604,516
92786649,508
92796665,508
92806712,508
92816758,509
92826775,503
92836822,502
92846871,504
92856887,496
92866937,501
92876982,503
92887027,502
92897047,504
92907096,505
92917146,509
92927164,506
92937212,507
92947261,503
92957276,509
92967326,510
92977378,502
92987399,509
92997450,511
93007499,510
93017514,510
93027561,508
93037611,509
93047634,498
93057687,500
93067735,509
93077754,504
93087802,501
93097849,504
93107867,505
93117918,505
93127968,505
93138016,508
93148035,507
93158084,502
93168132,506
93178151,506
93188196,504
93198240,501
93208251,507
93218300,511
93228347,503
93238365,506
93248411,510
93258457,506
93268475,510
93278524,500
93288573,504
93298591,504
93308639,499
93318688,500
93328705,508
93338752,503
93348800,511
93358817,509
93368863,510
93378910,516
93388957,525
93398973,530
93409019,524
93419068,528
93429082,533
93439125,534
93449172,527
93459186,529
93469228,527
93479274,517
93489290,525
93499334,515
93509377,514
93519391,515
93529431,508
93539475,502
93549492,504
93559540,500
93569586,504
93579601,505
93589648,503
93599693,500
93609706,504
93619749,504
93629795,506
93639838,505
93649855,504
93659900,508
93669944,501
93679958,509
93690002,510
93700048,512
93710058,503
93720106,511
93730156,508
93740176,509
93750224,507
93760274,499
93770288,506
93780334,505
93790376,505
93800387,506
93810427,502
93820469,504
93830480,501
93840524,503
93850571,496
93860587,503
93870633,499
93880685,505
93890735,508
93900752,505
93910800,507
93920848,507
93930868,497
93940916,502
93950963,504
93960982,506
93971033,504
93981084,501
93991104,506
94001155,508
94011208,503
94021233,500
94031289,510
94041342,510
94051364,507
94061414,505
94071466,504
94081490,502
94091539,512
94101587,515
94111601,498
94121647,517
94131694,520
94141742,534
94151761,537
94161811,533
94171860,543
94181876,544
94191920,536
94201962,539
94211978,534
94222030,531
94232079,520
94242096,519
94252147,513
94262199,509
94272221,511
94282270,502
94292320,504
94302339,507
94312387,504
94322437,505
94332454,503
94342502,504
94352548,501
94362561,496
94372605,502
94382654,497
94392704,499
94402720,497
94412770,505
94422818,508
94432836,509
94442887,509
94452939,499
94462959,507
94473010,507
94483060,500
94493079,505
94503131,505
94513182,497
94523199,504
94533250,499
94543304,497
94553327,503
94563379,504
94573428,499
94583446,505
94593492,504
94603536,501
94613552,504
94623601,505
94633658,508
94643709,505
94653727,502
94663776,504
94673823,508
94683843,499
94693889,504
94703937,501
94713956,509
94724005,500
94734054,508
94744070,506
94754120,508
94764171,499
94774188,504
94784238,508
94794288,501
94804307,508
94814353,508
94824398,509
94834413,512
94844466,515
94854518,514
94864543,523
94874596,526
94884647,535
94894699,536
94904721,535
94914772,538
94924825,538
94934848,540
94944900,535
94954956,527
94964979,528
94975030,524
94985082,519
94995099,514
95005153,510
95015205,505
95025229,508
95035284,503
95045336,505
95055358,499
95065407,497
95075458,505
95085483,499
95095540,503
95105599,502
95115624,503
95125674,504
95135723,503
95145775,500
95155793,509
95165845,502
95175897,500
95185917,504
95195970,505
95206022,508
95216041,509
95226090,508
95236139,508
95246159,509
95256212,509
95266265,506
95276287,500
95286341,505
95296390,506
95306410,505
95316462,498
95326514,507
95336537,504
95346588,502
95356638,504
95366654,504
95376704,500
95386759,505
95396814,505
95406836,506
95416887,508
95426939,501
95436962,507
95447018,499
95457074,502
95467098,501
95477153,507
95487206,505
95497232,508
95507286,502
95517344,502
95527369,498
95537424,499
95547478,503
95557501,506
95567552,506
95577606,508
95587629,505
95597683,508
95607739,511
95617766,513
95627820,515
95637873,525
95647925,525
95657942,534
95667990,538
95678037,541
95688059,538
95698112,535
95708166,534
95718193,532
95728252,528
95738307,525
95748329,520
95758386,512
95768440,511
95778463,515
95788516,510
95798569,507
95808591,498
95818644,508
95828696,505
95838716,501
95848765,496
95858817,497
95868839,497
95878890,507
95888941,506
95898990,505
95909011,511
95919062,501
95929115,510
95939138,504
95949193,511
95959249,514
95969274,510
95979331,511
95989387,510
95999408,511
96009458,509
96019511,507
96029534,505
96039587,506
96049638,499
96059657,505
96069707,502
96079754,508
96089771,500
96099817,504
96109865,504
96119883,506
96129932,499
96139979,503
96150027,507
96160044,508
96170089,503
96180134,507
96190150,506
96200195,501
96210237,509
96220250,500
96230296,508
96240340,507
96250353,502
96260398,505
96270442,509
96280455,506
96290498,508
96300543,508
96310557,509
96320604,504
96330649,506
96340659,509
96350705,510
96360750,513
96370768,513
96380813,521
96390857,521
96400902,522
96410917,532
96420965,532
96431013,531
96441031,537
96451080,532
96461133,533
96471153,525
96481203,521
96491253,520
96501272,514
96511322,510
96521373,508
96531392,503
96541439,501
96551484,505
96561502,500
96571545,497
96581594,499
96591613,502
96601663,495
96611711,501
96621726,505
96631771,499
96641816,508
96651862,505
96661881,504
96671931,507
96681979,512
96691997,511
96702045,506
96712091,505
96722106,513
96732152,512
96742199,507
96752217,510
96762265,499
96772315,509
96782332,507
96792380,502
96802427,506
96812444,505
96822490,506
96832539,502
96842558,506
96852609,508
96862660,503
96872680,499
96882733,504
96892782,500
96902832,500
96912851,506
96922901,508
96932948,508
96942970,507
96953022,503
96963072,504
96973090,509
96983136,503
96993184,505
97003201,504
97013248,501
97023296,506
97033313,501
97043360,499
97053407,506
97063422,504
97073466,505
97083516,505
97093535,506
97103582,518
97113627,517
97123647,525
97133695,531
97143744,526
97153789,531
97163804,536
97173847,538
97183893,531
97193910,526
97203958,522
97214009,522
97224029,521
97234081,517
97244131,518
97254153,512
97264206,508
97274256,505
97284277,500
97294330,506
97304382,503
97314401,506
97324452,504
97334503,504
97344525,502
97354577,507
97364631,506
97374653,507
97384702,500
97394756,511
97404809,507
97414834,510
97424888,505
97434940,507
97444961,509
97455012,502
97465062,504
97475082,508
97485131,508
97495184,508
97505205,503
97515256,499
97525308,503
97535328,505
97545379,503
97555427,507
97565445,502
97575494,505
97585545,504
97595565,506
97605612,505
97615660,508
97625680,500
97635732,505
97645783,508
97655832,509
97665848,504
97675893,502
97685944,502
97695966,506
97706016,506
97716066,508
97726088,500
97736135,502
97746184,505
97756202,507
97766251,503
97776298,505
97786318,505
97796369,502
97806420,509
97816443,508
97826494,514
97836544,515
97846567,520
97856618,523
97866669,532
97876689,536
97886739,536
97896784,540
97906830,537
97916847,540
97926895,525
97936944,522
97946963,527
97957014,526
97967062,515
97977077,515
97987127,513
97997175,504
98007190,504
98017237,503
98027285,508
98037304,497
98047351,501
98057397,503
98067413,504
98077459,500
98087505,503
98097521,506
98107566,503
98117609,502
98127620,506
98137661,503
98147698,508
98157741,509
98167753,506
98177797,504
98187840,504
98197856,507
98207901,506
98217944,510
98227959,506
98238005,501
98248050,507
98258064,506
98268107,505
98278152,506
98288165,504
98298208,502
98308246,508
98318257,501
98328299,503
98338345,508
98348358,505
98358402,503
98368443,505
98378452,498
98388498,506
98398545,509
98408594,508
98418613,499
98428660,505
98438707,505
98448727,505
98458783,496
98468836,499
98478859,507
98488910,505
98498959,509
98508977,507
98519028,507
98529078,507
98539097,507
98549149,505
98559200,510
98569221,509
98579272,516
98589324,513
98599343,522
98609388,529
98619434,524
98629449,534
98639499,534
98649547,532
98659595,527
98669612,526
98679660,526
98689706,528
98699719,522
98709763,516
98719813,514
98729831,506
98739882,505
98749935,509
98759956,506
98770003,504
98780051,502
98790068,504
98800116,499
98810162,499
98820177,501
98830223,501
98840270,504
98850287,505
98860339,507
98870390,506
98880410,500
98890461,509
98900512,507
98910562,510
98920582,513
98930632,509
98940682,509
98950699,509
98960744,505
98970792,508
98980810,508
98990857,505
99000904,498
99010921,508
99020969,501
99031020,499
99041036,504
99051084,500
99061132,507
99071148,507
99081194,501
99091240,500
99101256,507
99111304,505
99121351,504
99131367,504
99141412,507
99151458,502
99161505,503
99171519,506
99181561,504
99191603,506
99201619,506
99211664,506
99221711,509
99231726,507
99241771,502
99251817,500
99261831,507
99271875,508
99281920,505
99291938,501
99301988,509
99312037,508
99322054,513
99332105,509
99342153,518
99352170,525
99362219,521
99372271,523
99382290,535
99392340,537
99402390,532
99412440,534
99422461,532
99432510,526
99442558,526
99452576,521
99462626,516
99472673,508
99482691,510
99492739,507
99502787,508
99512807,503
99522858,504
99532909,504
99542933,505
99552986,500
99563039,503
99573063,505
99583116,508
99593170,506
99603193,510
99613246,510
99623300,499
99633323,505
99643374,511
99653427,512
99663482,513
99673505,508
99683558,505
99693610,508
99703627,509
99713680,507
99723731,505
99733752,508
99743802,508
99753849,507
99763868,499
99773915,502
99783965,498
99793985,501
99804036,497
99814087,498
99824106,505
99834154,504
99844202,501
99854221,499
99864270,498
99874320,495
99884341,502
99894390,505
99904439,502
99914491,506
99924507,508
99934557,501
99944605,510
99954625,506
99964675,503
99974725,500
99984746,507
99994796,504
100004846,498
100014864,502
100024912,502
100034961,499
100044980,506
100055029,504
100065078,508
100075096,513
100085145,516
100095194,515
100105212,520
100115263,526
100125311,530
100135328,528
100145380,532
100155431,528
100165479,531
100175499,523
100185550,524
100195599,517
100205615,512
100215663,513
100225712,514
100235727,512
100245771,505
100255817,501
100265833,502
100275882,502
100285930,495
100295946,505
100305996,501
100316048,503
100326066,497
100336116,502
100346167,505
100356186,507
100366236,506
100376285,510
100386305,504
100396356,507
100406405,510
100416456,512
100426479,503
100436531,509
100446583,507
100456605,506
100466657,509
100476707,502
100486729,503
100496783,501
100506838,508
100516862,508
100526913,505
100536969,503
100546996,508
100557055,505
100567113,503
100577142,504
100587199,503
100597258,505
100607282,500
100617337,508
100627390,503
100637410,502
100647458,509
100657509,506
100667561,508
100677583,498
100687633,504
100697684,508
100707705,509
100717760,506
100727815,502
100737840,505
100747892,506
100757943,501
100767965,501
100778018,510
100788072,509
100798090,519
100808140,521
100818192,521
100828213,525
100838264,530
100848317,527
100858341,525
100868397,525
100878450,521
100888468,528
100898518,523
100908566,518
100918616,516
100928633,514
100938681,508
100948731,512
100958752,507
100968803,504
100978853,506
100988875,505
100998927,502
101008976,499
101018990,500
101029040,498
101039088,501
101049107,508
101059156,508
101069205,509
101079224,509
101089274,510
101099324,508
101109344,509
101119393,510
101129440,502
101139458,511
101149504,507
101159553,504
101169600,509
101179616,500
101189662,499
101199711,506
101209729,500
101219777,507
101229825,506
101239840,497
101249886,502
101259934,505
101269951,507
101280000,499
101290049,506
101300069,506
101310118,510
101320167,506
101330186,505
101340234,505
101350279,506
101360295,502
101370340,507
101380382,506
101390397,506
101400448,506
101410494,509
101420540,500
101430557,502
101440605,505
101450653,505
101460668,508
101470713,512
101480758,513
101490775,518
101500821,522
101510864,524
101520877,527
101530919,526
101540964,533
101550979,532
101561023,534
101571066,527
101581080,528
101591127,521
101601175,521
101611193,518
101621242,513
101631287,516
101641304,509
101651348,504
101661394,511
101671439,508
101681455,506
101691498,502
101701540,502
101711555,501
101721598,503
101731645,503
101741662,499
101751707,508
101761751,507
101771762,509
101781803,508
101791848,512
101801859,505
101811903,512
101821946,512
101831958,506
101842004,512
101852048,503
101862060,502
101872101,507
101882143,505
101892155,503
101902194,510
101912238,508
101922281,503
101932297,502
101942338,501
101952382,501
101962395,504
101972437,505
101982481,508
101992494,506
102002533,509
102012575,508
102022588,508
102032629,502
102042670,510
102052682,505
102062724,508
102072769,502
102082784,506
102092827,507
102102870,506
102112885,500
102122929,503
102132973,499
102142985,507
102153031,509
102163079,507
102173125,513
102183137,519
102193182,520
102203222,523
102213233,529
102223278,534
102233323,536
102243335,533
102253378,535
102263423,536
102273441,534
102283485,524
102293530,519
102303546,525
102313591,520
102323636,519
102333651,515
102343699,505
102353743,515
102363759,507
102373804,508
102383850,507
102393861,504
102403905,506
102413949,502
102423995,503
102434012,504
102444058,501
102454108,507
102464126,503
102474170,510
102484217,511
102494237,510
102504286,504
102514335,505
102524353,508
102534402,505
102544453,509
102554471,508
102564521,501
102574569,493
102584587,506
102594639,506
102604688,508
102614703,503
102624749,508
102634797,506
102644814,508
102654862,508
102664909,500
102674957,501
102684976,502
102695025,509
102705073,505
102715091,505
102725137,504
102735189,500
102745204,507
102755251,508
102765299,505
102775316,505
102785366,503
102795415,499
102805433,508
102815482,502
102825532,502
102835548,502
102845596,499
102855646,502
102865664,501
102875717,501
102885765,512
102895783,514
102905828,514
102915877,522
102925927,525
102935944,530
102945993,530
102956045,537
102966068,529
102976118,532
102986171,535
102996192,532
103006242,527
103016293,528
103026306,524
103036353,519
103046398,514
103056416,507
103066463,509
103076511,511
103086529,508
103096578,506
103106626,501
103116641,503
103126686,497
103136727,498
103146742,499
103156793,507
103166840,506
103176886,498
103186906,509
103196956,502
103207001,504
103217018,502
103227062,510
103237105,511
103247119,506
103257162,509
103267207,502
103277222,502
103287265,509
103297314,502
103307332,505
103317377,504
103327424,503
103337438,508
103347486,508
103357537,507
103367549,507
103377592,506
103387636,504
103397654,506
103407700,508
103417749,498
103427798,501
103437810,502
103447858,503
103457905,497
103467922,503
103477969,497
103488013,504
103498025,506
103508067,503
103518111,506
103528123,501
103538165,507
103548208,501
103558220,504
103568264,499
103578306,508
103588318,506
103598362,506
103608408,503
103618422,510
103628468,510
103638516,514
103648531,522
103658579,526
103668627,524
103678674,528
103688687,529
103698735,535
103708781,527
103718796,526
103728843,521
103738889,523
103748905,519
103758952,515
103768999,515
103779015,512
103789063,510
103799109,503
103809125,503
103819172,503
103829216,497
103839229,503
103849278,499
103859325,503
103869337,501
103879381,496
103889426,502
103899442,507
103909490,504
103919539,504
103929586,507
103939600,496
103949649,495
103959700,503
103969721,499
103979770,502
103989816,509
103999829,508
104009874,510
104019923,503
104029942,511
104039986,511
104050033,504
104060049,507
104070095,510
104080142,505
104090155,509
104100200,505
104110246,508
104120258,507
104130301,508
104140343,507
104150354,501
104160396,503
104170442,500
104180487,516
104190501,500
104200544,504
104210587,506
104220597,502
104230640,504
104240684,506
104250697,501
104260739,501
104270780,508
104280789,504
104290829,506
104300868,504
104310872,505
104320910,502
104330949,499
104340960,507
104351002,508
104361044,511
104371053,515
104381096,521
104391137,523
104401147,530
104411189,531
104421235,534
104431276,533
104441283,531
104451324,525
104461364,525
104471372,524
104481412,520
104491447,518
104501454,516
104511496,508
104521534,509
104531547,502
104541592,505
104551637,498
104561652,498
104571696,498
104581738,503
104591747,501
104601787,496
104611827,503
104621841,504
104631885,509
104641929,505
104651943,510
104661986,507
104672029,504
104682075,505
104692089,507
104702138,503
104712192,510
104722216,505
104732269,507
104742315,504
104752328,507
104762367,505
104772408,502
104782421,506
104792467,501
104802510,504
104812523,501
104822568,502
104832612,497
104842625,500
104852666,505
104862708,503
104872722,504
104882767,503
104892813,502
104902829,505
104912869,500
104922909,508
104932953,503
104942967,503
104953014,502
104963061,504
104973076,502
104983122,500
104993169,504
105003187,506
105013232,507
105023274,502
105033288,500
105043332,504
105053375,509
105063388,506
105073434,505
105083478,518
105093484,519
105103524,525
105113565,525
105123579,529
105133622,528
105143664,525
105153673,531
105163715,528
105173754,524
105183798,524
105193809,516
105203849,518
105213892,508
105223898,509
105233932,505
105243972,507
105253980,500
105264018,504
105274058,496
105284070,501
105294110,501
105304150,502
105314164,504
105324212,500
105334260,502
105344277,506
105354317,505
105364359,505
105374373,509
105384414,510
105394452,509
105404460,509
105414501,508
105424541,506
105434579,503
105444590,510
105454631,503
105464670,510
105474678,502
105484721,510
105494766,506
105504778,508
105514822,509
105524868,508
105534885,503
105544928,499
105554972,505
105564983,507
105575023,506
105585067,501
105595077,506
105605120,500
105615165,508
105625177,506
105635221,509
105645263,503
105655276,507
105665320,502
105675366,503
105685413,503
105695426,499
105705470,499
105715518,507
105725534,503
105735580,501
105745626,502
105755641,499
105765685,505
105775732,502
105785747,509
105795792,505
105805837,511
105815852,520
105825898,528
105835944,525
105845960,528
105856007,534
105866054,532
105876070,531
105886114,529
105896156,523
105906171,522
105916213,521
105926256,515
105936301,515
105946318,519
105956368,517
105966419,508
105976437,511
105986485,507
105996532,507
106006548,509
106016596,509
106026644,506
106036661,508
106046712,504
106056764,507
106066782,510
106076833,508
106086883,507
106096898,508
106106944,513
106116992,510
106127009,514
106137055,515
106147102,514
106157119,512
106167162,513
106177202,506
106187246,506
106197261,507
106207306,509
106217352,503
106227368,505
106237413,501
106247457,499
106257470,507
106267516,499
106277561,508
106287573,509
106297615,507
106307656,505
106317667,508
106327712,509
106337757,501
106347772,510
106357815,509
106367858,508
106377870,511
106387910,503
106397952,508
106407964,505
106418004,502
106428045,512
106438088,508
106448102,512
106458146,512
106468192,510
106478205,505
106488251,510
106498303,510
106508320,513
106518367,515
106528410,512
106538425,516
106548472,524
106558519,531
106568532,535
106578577,537
106588623,537
106598639,545
106608687,538
106618739,531
106628760,534
106638810,530
106648859,524
106658879,528
106668928,519
106678977,523
106689025,518
106699041,516
106709087,508
106719134,513
106729147,507
106739195,506
106749243,504
106759256,504
106769302,511
106779350,510
106789368,512
106799414,507
106809460,512
106819476,514
106829518,515
106839562,519
106849579,513
106859627,513
106869677,513
106879695,516
106889748,513
106899801,514
106909819,510
106919868,513
106929921,504
106939973,509
106949994,507
106960048,508
106970100,503
106980119,509
106990168,504
107000215,504
107010233,508
107020280,499
107030329,507
107040344,498
107050391,504
107060437,503
107070449,500
107080493,505
107090539,502
107100554,508
107110599,501
107120646,504
107130661,508
107140709,501
107150753,503
107160767,505
107170811,504
107180857,506
107190897,507
107200906,505
107210949,504
107220993,502
107231008,500
107241054,499
107251100,501
107261118,505
107271165,508
107281210,510
107291223,520
107301267,522
107311308,522
107321321,528
107331365,523
107341408,531
107351422,527
107361466,531
107371511,528
107381525,523
107391568,516
107401614,517
107411631,509
107421677,507
107431723,511
107441767,500
107451781,500
107461826,501
107471873,504
107481893,499
107491942,504
107501986,505
107511999,502
107522043,495
107532088,500
107542100,498
107552139,501
107562187,506
107572201,500
107582243,507
107592288,500
107602300,505
107612341,502
107622383,501
107632393,500
107642434,504
107652481,506
107662498,499
107672546,502
107682594,507
107692640,499
107702655,497
107712702,505
107722746,506
107732759,499
107742804,507
107752846,500
107762856,500
107772898,507
107782944,508
107792961,507
107803010,510
107813057,504
107823071,508
107833115,502
107843159,508
107853175,507
107863219,510
107873262,504
107883274,510
107893321,510
107903363,509
107913380,508
107923426,504
107933474,510
107943521,510
107953537,503
107963584,508
107973630,506
107983649,501
107993698,508
108003747,508
108013765,511
108023808,517
108033853,523
108043866,529
108053912,532
108063956,535
108073971,537
108084020,531
108094066,539
108104082,532
108114131,530
108124179,526
108134197,521
108144241,513
108154285,516
108164301,512
108174348,513
108184397,511
108194445,510
108204463,501
108214511,507
108224560,502
108234574,503
108244620,501
108254663,498
108264675,501
108274720,506
108284770,501
108294789,505
108304836,509
108314885,509
108324900,503
108334945,505
108344992,511
108355010,503
108365061,512
108375111,508
108385132,508
108395182,509
108405231,504
108415247,506
108425292,504
108435340,496
108445388,500
108455403,501
108465448,498
108475494,499
108485513,497
108495565,499
108505616,502
108515635,500
108525686,498
108535731,500
108545750,501
108555800,499
108565846,492
108575865,496
108585916,499
108595968,496
108605985,505
108616034,504
108626087,506
108636112,508
108646168,510
108656222,501
108666245,508
108676297,512
108686351,508
108696403,502
108706425,503
108716477,512
108726528,510
108736550,507
108746600,511
108756652,509
108766674,508
108776725,519
108786776,522
108796798,527
108806850,533
108816903,531
108826929,536
108836983,538
108847033,535
108857051,536
108867101,537
108877156,533
108887177,528
108897232,525
108907286,516
108917311,513
108927371,514
108937429,506
108947487,505
108957512,505
108967564,506
108977617,508
108987642,505
108997696,505
109007750,499
109017775,500
109027828,508
109037877,504
109047897,511
109057949,509
109068000,512
109078023,515
109088079,509
109098131,515
109108158,516
109118212,511
109128266,515
109138290,513
109148345,514
109158400,511
109168425,515
109178479,512
109188533,512
109198586,499
109208610,504
109218665,509
109228724,500
109238755,506
109248809,504
109258863,485
109268884,501
109278936,497
109288988,503
109299010,497
109309069,502
109319127,503
109329152,508
109339206,506
109349254,505
109359273,505
109369327,503
109379380,506
109389400,507
109399451,506
109409504,507
109419523,507
109429574,505
109439623,500
109449677,508
109459698,497
109469748,504
109479800,497
109489823,505
109499874,510
109509926,505
109519947,502
109529996,505
109540048,511
109550069,520
109560120,524
109570167,526
109580186,533
109590236,531
109600288,531
109610309,535
109620360,530
109630406,529
109640425,521
109650474,522
109660524,512
109670542,517
109680590,505
109690640,508
109700688,503
109710706,500
109720757,499
109730809,501
109740830,499
109750881,493
109760931,501
109770951,500
109780999,496
109791045,498
109801060,499
109811107,506
109821154,499
109831173,504
109841222,510
109851270,503
109861289,509
109871340,502
109881389,505
109891409,508
109901455,507
109911507,499
109921526,508
109931574,503
109941625,504
109951675,498
109961695,502
109971746,496
109981795,504
109991814,503
110001863,494
110011916,495
110021940,504
110031992,498
110042044,496
110052063,497
110062111,497
110072159,497
110082176,502
110092225,503
110102275,505
110112296,495
110122348,496
110132395,505
110142416,504
110152466,501
110162515,508
110172537,506
110182591,502
110192645,506
110202700,504
110212725,502
110222778,505
110232834,504
110242857,508
110252910,510
110262963,512
110272986,509
110283039,518
110293091,524
110303115,531
110313165,536
110323216,534
110333240,534
110343291,537
110353340,534
110363360,527
110373409,529
110383458,521
110393479,513
110403529,517
110413578,514
110423596,511
110433646,509
110443694,504
110453742,499
110463759,503
110473807,502
110483854,501
110493871,503
110503920,500
110513969,498
110523989,505
110534038,504
110544091,501
110554111,506
110564162,507
110574214,506
110584236,507
110594289,512
110604339,510
110614361,505
110624410,512
110634459,508
110644472,506
110654521,508
110664569,507
110674586,503
110684636,507
110694689,510
110704737,507
110714757,505
110724805,505
110734853,501
110744871,507
110754920,510
110764970,503
110774988,508
110785036,508
110795084,508
110805101,500
110815148,501
110825195,507
