timestamp, ppg
76980791,529
76990371,523
77000374,527
77010409,521
77020446,519
77030455,518
77040496,518
77050536,511
77060576,512
77070585,510
77080625,511
77090664,503
77100670,505
77110707,506
77120742,505
77130745,505
77140781,499
77150815,497
77160818,506
77170853,502
77180887,502
77190892,500
77200929,501
77210968,507
77220977,509
77231014,512
77241052,505
77251058,512
77261094,503
77271132,513
77281142,508
77291179,502
77301220,509
77311261,509
77321270,507
77331312,508
77341350,501
77351361,502
77361401,503
77371439,504
77381449,499
77391486,501
77401522,498
77411528,507
77421566,504
77431604,506
77441611,503
77451650,501
77461686,508
77471691,505
77481727,503
77491760,508
77501763,507
77511797,509
77521834,505
77531841,510
77541875,506
77551908,509
77561943,504
77571949,511
77581986,505
77592023,508
77602028,503
77612064,507
77622101,510
77632104,508
77642140,509
77652174,506
77662181,502
77672217,506
77682255,506
77692260,505
77702295,508
77712331,504
77722336,505
77732373,514
77742406,513
77752412,519
77762449,514
77772485,520
77782491,527
77792525,529
77802559,530
77812593,530
77822597,529
77832635,529
77842674,526
77852683,528
77862724,519
77872764,521
77882770,517
77892809,512
77902847,512
77912855,506
77922894,512
77932930,509
77942937,506
77952972,510
77963008,504
77973013,505
77983045,500
77993076,503
78003078,505
78013112,504
78023148,505
78033156,503
78043195,503
78053232,507
78063268,506
78073272,507
78083305,504
78093337,508
78103340,510
78113374,507
78123411,509
78133415,513
78143447,512
78153485,509
78163491,512
78173527,512
78183567,508
78193573,511
78203610,509
78213649,506
78223658,505
78233696,503
78243733,503
78253740,508
78263776,500
78273810,505
78283814,502
78293849,504
78303886,507
78313919,502
78323924,507
78333960,505
78343995,508
78354001,509
78364035,510
78374071,508
78384073,504
78394104,503
78404137,509
78414140,512
78424174,506
78434207,508
78444210,504
78454248,509
78464287,507
78474294,507
78484332,501
78494369,506
78504376,507
78514410,508
78524445,505
78534448,503
78544484,505
78554523,506
78564561,506
78574566,506
78584599,511
78594631,516
78604633,519
78614668,524
78624703,522
78634707,529
78644744,526
78654780,530
78664785,525
78674822,522
78684859,520
78694864,522
78704898,520
78714934,520
78724937,515
78734973,508
78745008,514
78755012,509
78765049,511
78775083,505
78785088,504
78795126,510
78805164,511
78815201,499
78825214,510
78835256,507
78845295,512
78855304,510
78865344,510
78875384,513
78885396,510
78895436,510
78905474,508
78915485,512
78925526,504
78935565,512
78945574,512
78955615,513
78965656,507
78975665,502
78985708,507
78995751,505
79005762,507
79015802,509
79025844,506
79035853,505
79045893,506
79055931,507
79065968,507
79075973,508
79086013,500
79096051,507
79106061,507
79116101,504
79126141,503
79136152,511
79146194,504
79156235,503
79166250,513
79176296,509
79186337,512
79196345,508
79206383,507
79216426,508
79226440,506
79236482,508
79246524,510
79256536,508
79266580,504
79276621,507
79286631,508
79296669,501
79306707,509
79316745,502
79326750,509
79336789,506
79346827,512
79356836,507
79366873,520
79376911,515
79386919,526
79396958,522
79406992,523
79417002,520
79427045,523
79437087,524
79447099,521
79457139,514
79467179,521
79477190,515
79487232,516
79497272,510
79507284,507
79517325,508
79527367,512
79537378,502
79547417,510
79557458,507
79567502,508
79577515,501
79587554,503
79597596,506
79607609,502
79617657,507
79627701,503
79637713,506
79647755,504
79657797,505
79667808,505
79677851,510
79687895,508
79697911,505
79707957,508
79718002,508
79728016,512
79738060,507
79748105,508
79758122,501
79768167,509
79778211,500
79788226,503
79798268,504
79808311,509
79818354,502
79828368,509
79838411,508
79848449,504
79858461,509
79868505,502
79878546,505
79888557,503
79898601,508
79908643,509
79918654,509
79928695,503
79938737,504
79948750,506
79958793,508
79968833,506
79978842,506
79988886,509
79998927,503
80008937,510
80018978,503
80029019,509
80039030,500
80049071,509
80059110,511
80069146,508
80079152,511
80089189,510
80099227,512
80109234,514
80119269,520
80129307,522
80139317,519
80149355,530
80159399,530
80169411,530
80179451,532
80189490,526
80199502,531
80209544,527
80219586,525
80229596,521
80239636,519
80249677,516
80259686,512
80269725,515
80279764,508
80289775,508
80299816,504
80309861,509
80319901,506
80329908,504
80339948,504
80349988,500
80360000,507
80370042,504
80380086,507
80390099,507
80400142,511
80410183,510
80420192,511
80430235,511
80440273,506
80450282,510
80460319,513
80470355,507
80480360,510
80490394,511
80500429,508
80510438,511
80520476,508
80530516,505
80540526,511
80550564,507
80560598,503
80570631,507
80580639,503
80590677,507
80600715,507
80610722,505
80620758,508
80630798,506
80640807,503
80650845,505
80660879,507
80670887,504
80680922,503
80690963,507
80700971,510
80711009,509
80721049,509
80731059,501
80741096,503
80751136,503
80761145,509
80771179,503
80781213,504
80791221,508
80801261,510
80811298,507
80821336,501
80831346,511
80841382,508
80851423,510
80861434,511
80871476,511
80881515,517
80891524,522
80901563,519
80911602,524
80921607,526
80931647,534
80941686,525
80951694,535
80961734,529
80971774,524
80981780,525
80991817,522
81001855,523
81011860,517
81021901,515
81031943,516
81041955,516
81052000,512
81062040,513
81072084,513
81082100,507
81092145,503
81102189,507
81112204,507
81122245,505
81132285,508
81142295,503
81152337,506
81162379,504
81172389,509
81182428,509
81192468,507
81202477,504
81212518,511
81222554,510
81232562,504
81242602,509
81252640,511
81262647,510
81272688,506
81282730,510
81292740,511
81302781,508
81312820,509
81322858,510
81332868,508
81342909,509
81352951,509
81362963,508
81373000,507
81383036,509
81393043,511
81403081,507
81413120,507
81423125,509
81433162,505
81443199,504
81453204,508
81463240,509
81473276,502
81483280,508
81493317,507
81503357,507
81513364,508
81523402,506
81533436,504
81543446,509
81553483,509
81563521,508
81573561,512
81583571,506
81593610,509
81603646,503
81613653,503
81623692,502
81633730,510
81643736,514
81653776,514
81663815,510
81673821,520
81683859,523
81693896,528
81703904,531
81713945,531
81723985,533
81733991,528
81744024,535
81754059,531
81764061,530
81774095,526
81784130,515
81794136,520
81804171,513
81814208,511
81824244,515
81834249,504
81844287,512
81854323,510
81864332,509
81874369,499
81884406,503
81894414,504
81904449,505
81914483,502
81924486,506
81934522,502
81944562,506
81954570,502
81964608,509
81974649,508
81984658,509
81994697,506
82004736,512
82014742,506
82024776,512
82034813,507
82044817,507
82054853,505
82064891,511
82074925,509
82084929,508
82094965,508
82105003,505
82115015,508
82125051,503
82135091,500
82145099,506
82155136,499
82165170,500
82175174,505
82185210,504
82195247,499
82205250,506
82215287,510
82225324,501
82235331,502
82245367,505
82255404,511
82265409,505
82275446,504
82285484,510
82295490,510
82305524,507
82315562,504
82325601,510
82335605,510
82345642,507
82355675,509
82365682,505
82375718,504
82385757,507
82395766,504
82405805,504
82415842,499
82425850,508
82435888,506
82445925,507
82455934,509
82465974,510
82476016,517
82486026,517
82496063,521
82506100,524
82516107,527
82526146,532
82536187,533
82546197,535
82556237,534
82566273,531
82576313,531
82586320,530
82596355,528
82606390,524
82616396,521
82626433,520
82636469,509
82646473,511
82656511,508
82666550,505
82676559,506
82686600,501
82696638,504
82706643,506
82716675,495
82726708,504
82736718,502
82746759,495
82756797,501
82766804,501
82776844,497
82786884,509
82796893,503
82806933,502
82816974,512
82827014,510
82837025,505
82847064,505
82857103,506
82867111,508
82877150,507
82887191,510
82897198,511
82907234,511
82917269,507
82927275,510
82937313,509
82947350,506
82957355,504
82967395,509
82977435,502
82987443,500
82997483,498
83007524,506
83017537,508
83027581,506
83037624,503
83047635,507
83057677,507
83067715,502
83077751,509
83087758,503
83097796,504
83107834,508
83117841,502
83127873,504
83137911,503
83147917,501
83157952,508
83167987,505
83177994,510
83188027,505
83198061,505
83208067,505
83218103,509
83228142,508
83238147,506
83248182,504
83258215,509
83268219,508
83278251,508
83288284,508
83298287,505
83308322,507
83318359,515
83328397,523
83338406,523
83348445,525
83358484,527
83368492,535
83378530,527
83388570,536
83398580,533
83408619,529
83418659,526
83428667,534
83438706,520
83448747,518
83458757,509
83468795,512
83478832,505
83488841,509
83498883,508
83508923,504
83518932,506
83528966,505
83539000,499
83549003,500
83559039,505
83569073,499
83579111,500
83589117,501
83599153,500
83609192,508
83619198,511
83629235,506
83639272,511
83649280,505
83659314,505
83669350,505
83679356,510
83689392,509
83699427,507
83709429,502
83719461,507
83729496,509
83739506,503
83749545,505
83759587,509
83769598,501
83779633,508
83789669,502
83799671,502
83809706,507
83819740,502
83829775,505
83839783,506
83849821,507
83859863,503
83869873,508
83879914,506
83889952,506
83899958,507
83909992,508
83920027,507
83930034,510
83940072,508
83950107,504
83960112,510
83970146,509
83980180,510
83990184,509
84000220,511
84010255,511
84020260,506
84030294,503
84040330,503
84050338,508
84060377,504
84070419,509
84080458,512
84090467,516
84100503,517
84110541,523
84120552,522
84130590,529
84140626,536
84150627,534
84160663,538
84170699,536
84180704,537
84190739,532
84200774,533
84210780,536
84220817,523
84230854,520
84240862,511
84250904,514
84260944,505
84270951,509
84280991,508
84291029,502
84301035,497
84311071,503
84321105,499
84331141,501
84341145,498
84351183,503
84361224,505
84371232,501
84381271,507
84391307,502
84401312,501
84411350,504
84421384,510
84431388,507
84441426,511
84451465,505
84461473,508
84471510,509
84481552,511
84491570,504
84501609,507
84511654,508
84521664,507
84531703,503
84541747,507
84551760,508
84561803,505
84571842,507
84581886,503
84591901,505
84601945,504
84611987,503
84622001,508
84632043,503
84642088,506
84652101,506
84662145,508
84672186,507
84682195,507
84692238,501
84702278,505
84712289,505
84722331,499
84732370,504
84742382,506
84752423,504
84762465,507
84772475,511
84782517,508
84792559,506
84802568,500
84812610,508
84822651,508
84832689,507
84842697,502
84852741,510
84862781,510
84872795,511
84882836,510
84892881,514
84902894,518
84912938,522
84922983,524
84932997,529
84943039,529
84953080,534
84963094,538
84973138,531
84983182,531
84993193,532
85003234,528
85013276,521
85023289,524
85033332,519
85043374,519
85053387,513
85063431,509
85073472,504
85083514,501
85093526,507
85103564,500
85113601,501
85123609,495
85133649,503
85143693,498
85153702,494
85163745,497
85173785,501
85183796,500
85193837,506
85203875,501
85213885,507
85223925,508
85233964,508
85243975,511
85254017,507
85264060,508
85274072,512
85284114,512
85294157,503
85304168,512
85314208,513
85324249,512
85334290,509
85344300,500
85354341,506
85364382,506
85374392,507
85384434,507
85394475,507
85404478,504
85414516,501
85424557,508
85434564,507
85444603,505
85454639,508
85464649,509
85474687,509
85484724,505
85494732,510
85504768,504
85514805,509
85524814,509
85534850,501
85544888,505
85554898,510
85564939,506
85574977,509
85585015,509
85595026,504
85605067,503
85615105,504
85625114,506
85635153,509
85645190,505
85655195,509
85665233,509
85675275,509
85685288,508
85695327,508
85705365,508
85715370,503
85725407,515
85735443,514
85745449,518
85755492,523
85765532,523
85775540,535
85785580,538
85795619,537
85805629,537
85815665,531
85825700,534
85835737,528
85845746,521
85855788,518
85865830,517
85875843,510
85885883,503
85895923,507
85905935,508
85915980,500
85926025,500
85936039,503
85946085,502
85956127,495
85966140,500
85976185,505
85986229,500
85996242,495
86006285,503
86016328,499
86026343,504
86036388,502
86046432,501
86056445,500
86066487,506
86076531,504
86086577,507
86096596,505
86106644,506
86116697,506
86126720,499
86136766,504
86146813,500
86156828,503
86166870,497
86176915,502
86186926,499
86196966,500
86207009,505
86217020,505
86227062,496
86237101,502
86247113,502
86257158,506
86267201,508
86277213,503
86287255,506
86297302,511
86307318,507
86317363,505
86327408,509
86337451,502
86347463,507
86357509,510
86367554,507
86377570,502
86387614,508
86397657,502
86407668,508
86417709,506
86427749,505
86437761,501
86447805,504
86457850,502
86467867,500
86477912,500
86487957,507
86497974,505
86508018,504
86518059,504
86528075,500
86538125,504
86548172,505
86558188,505
86568234,504
86578275,508
86588318,515
86598331,518
86608374,525
86618415,528
86628425,530
86638466,530
86648509,530
86658521,531
86668563,528
86678607,519
86688622,522
86698668,517
86708711,510
86718725,507
86728770,502
86738815,505
86748829,504
86758873,499
86768915,504
86778926,500
86788967,499
86799011,500
86809022,501
86819068,502
86829111,501
86839155,502
86849167,497
86859206,503
86869247,504
86879257,511
86889298,507
86899340,512
86909354,513
86919396,514
86929440,508
86939453,508
86949496,507
86959533,508
86969541,507
86979581,507
86989621,504
86999633,502
87009678,509
87019719,504
87029728,501
87039769,501
87049809,502
87059821,504
87069864,503
87079910,507
87089953,507
87099965,506
87110005,504
87120047,502
87130059,508
87140102,504
87150144,501
87160156,505
87170200,508
87180244,504
87190258,504
87200303,504
87210345,506
87220355,509
87230398,507
87240442,506
87250454,508
87260496,498
87270541,499
87280554,508
87290597,504
87300640,505
87310653,498
87320696,498
87330736,506
87340779,505
87350792,503
87360836,510
87370880,513
87380889,516
87390929,521
87400965,519
87410972,527
87421008,527
87431040,529
87441046,532
87451083,529
87461124,528
87471132,523
87481169,518
87491206,511
87501213,509
87511251,512
87521289,504
87531298,506
87541339,503
87551377,503
87561387,504
87571427,499
87581469,501
87591512,501
87601524,501
87611566,498
87621603,494
87631614,496
87641655,504
87651693,506
87661702,506
87671741,508
87681780,505
87691787,503
87701827,500
87711866,506
87721875,508
87731917,499
87741957,506
87751967,503
87762008,505
87772051,506
87782062,500
87792105,501
87802146,500
87812161,503
87822204,501
87832244,497
87842284,501
87852291,501
87862328,502
87872365,502
87882373,500
87892410,502
87902445,496
87912444,506
87922475,504
87932511,505
87942517,508
87952553,504
87962588,506
87972597,511
87982634,508
87992667,508
88002675,510
88012712,508
88022754,508
88032764,510
88042801,509
88052840,510
88062845,508
88072879,505
88082917,508
88092964,509
88102978,501
88113021,508
88123061,505
88133070,508
88143109,508
88153150,506
88163161,509
88173202,511
88183241,516
88193251,520
88203297,527
88213335,530
88223340,534
88233375,533
88243415,531
88253419,531
88263455,522
88273491,524
88283497,522
88293538,513
88303577,514
88313587,505
88323632,504
88333673,508
88343713,507
88353724,507
88363765,501
88373805,495
88383813,499
88393853,495
88403893,496
88413902,494
88423943,499
88433985,498
88443994,503
88454034,503
88464069,506
88474075,503
88484110,510
88494147,509
88504156,510
88514195,513
88524235,505
88534250,508
88544295,510
88554336,510
88564352,512
88574397,511
88584444,506
88594491,502
88604505,508
88614551,502
88624590,500
88634599,499
88644642,503
88654684,500
88664695,496
88674744,496
88684794,498
88694816,496
88704871,505
88714923,499
88724936,500
88734983,499
88745029,507
88755048,506
88765098,510
88775144,507
88785162,508
88795207,509
88805252,505
88815266,508
88825310,508
88835353,506
88845397,500
88855410,498
88865455,503
88875507,507
88885523,505
88895568,498
88905611,503
88915621,506
88925664,503
88935706,508
88945721,508
88955763,505
88965805,509
88975817,508
88985858,513
88995901,516
89005915,519
89015959,520
89026001,528
89036013,527
89046056,528
89056102,533
89066117,536
89076162,531
89086206,531
89096250,530
89106265,523
89116311,523
89126356,516
89136370,509
89146413,510
89156460,509
89166472,512
89176517,504
89186559,500
89196573,502
89206617,507
89216659,499
89226665,497
89236707,501
89246747,504
89256756,508
89266800,506
89276841,509
89286854,508
89296897,514
89306935,511
89316946,516
89326988,511
89337030,515
89347075,515
89357087,514
89367127,512
89377166,513
89387172,502
89397206,506
89407242,507
89417245,506
89427278,502
89437316,498
89447325,504
89457369,506
89467413,503
89477427,504
89487464,503
89497501,508
89507507,506
89517543,504
89527578,512
89537583,509
89547619,505
89557655,509
89567663,511
89577704,507
89587744,508
89597783,513
89607791,513
89617831,510
89627870,512
89637880,511
89647916,510
89657955,511
89667964,512
89678000,509
89688038,510
89698052,508
89708091,501
89718129,512
89728137,509
89738177,512
89748216,516
89758222,519
89768262,520
89778309,529
89788321,523
89798361,532
89808398,531
89818405,530
89828444,523
89838481,529
89848521,522
89858533,523
89868573,518
89878613,521
89888621,511
89898660,508
89908699,511
89918708,511
89928746,507
89938786,508
89948794,504
89958833,506
89968869,505
89978878,507
89988917,505
89998955,504
90008963,503
90019005,504
90029044,501
90039049,506
90049086,505
90059127,501
90069136,508
90079178,504
90089220,508
90099262,510
90109273,506
90119316,510
90129358,511
90139366,507
90149405,507
90159447,509
90169457,510
90179499,509
90189544,511
90199557,508
90209598,507
90219640,505
90229650,502
90239693,509
90249740,506
90259757,507
90269805,502
90279849,504
90289863,509
90299907,508
90309953,502
90319969,506
90330015,509
90340059,505
90350105,503
90360116,500
90370157,506
90380199,510
90390209,501
90400249,505
90410290,500
90420306,507
90430353,502
90440394,502
90450404,508
90460446,503
90470489,509
90480501,512
90490544,510
90500586,513
90510597,526
90520640,530
90530681,524
90540690,529
90550732,531
90560775,529
90570788,526
90580832,526
90590874,522
90600923,516
90610937,516
90620983,511
90631025,512
90641035,508
90651075,509
90661116,501
90671125,507
90681163,504
90691205,498
90701215,502
90711255,502
90721296,503
90731305,505
90741345,506
90751384,507
90761391,509
90771429,505
90781467,508
90791475,508
90801512,504
90811549,511
90821557,508
90831597,511
90841635,508
90851670,506
90861676,505
90871715,505
90881753,507
90891759,505
90901791,507
90911826,505
90921830,504
90931866,497
90941903,505
90951906,502
90961936,505
90971967,502
90981970,505
90992008,508
91002044,510
91012048,504
91022084,507
91032119,508
91042124,503
91052159,506
91062194,504
91072198,507
91082231,508
91092266,507
91102302,503
91112307,506
91122341,508
91132379,506
91142388,502
91152425,507
91162462,501
91172470,507
91182513,505
91192554,505
91202562,499
91212602,508
91222643,505
91232653,509
91242696,514
91252735,516
91262739,521
91272776,524
91282818,525
91292828,530
91302867,528
91312907,527
91322916,526
91332957,519
91342996,524
91353034,515
91363042,513
91373083,517
91383122,511
91393132,510
91403173,503
91413216,499
91423227,497
91433268,499
91443309,501
91453319,500
91463358,506
91473399,505
91483407,504
91493447,503
91503488,507
91513499,508
91523540,510
91533581,508
91543591,510
91553631,510
91563671,510
91573681,512
91583724,509
91593765,511
91603808,511
91613820,510
91623862,511
91633902,507
91643918,504
91653963,509
91664008,512
91674022,501
91684061,499
91694104,500
91704117,506
91714163,503
91724207,502
91734222,506
91744264,507
91754307,508
91764321,507
91774367,501
91784407,507
91794423,509
91804469,505
91814516,508
91824530,508
91834577,501
91844621,506
91854664,507
91864674,504
91874717,508
91884758,502
91894771,506
91904814,509
91914856,508
91924868,509
91934912,502
91944959,508
91954972,507
91965016,508
91975061,505
91985075,510
91995119,504
92005165,515
92015182,517
92025226,520
92035270,518
92045284,528
92055331,526
92065377,528
92075391,532
92085435,527
92095477,530
92105524,520
92115540,520
92125586,520
92135631,516
92145645,508
92155687,514
92165731,510
92175743,501
92185788,506
92195830,499
92205840,501
92215881,505
92225918,504
92235931,498
92245971,500
92256014,504
92266023,502
92276064,501
92286108,500
92296119,502
92306162,506
92316205,505
92326216,504
92336260,505
92346305,514
92356350,508
92366363,507
92376409,505
92386453,504
92396464,508
92406507,508
92416549,512
92426560,508
92436602,506
92446646,506
92456657,507
92466700,509
92476743,505
92486756,502
92496795,501
92506835,502
92516842,507
92526884,503
92536928,506
92546941,499
92556987,502
92567031,501
92577045,506
92587087,507
92597130,505
92607172,506
92617183,505
92627226,502
92637269,506
92647281,509
92657325,507
92667372,508
92677387,508
92687433,506
92697475,504
92707488,508
92717533,508
92727579,504
92737591,505
92747636,508
92757681,511
92767696,505
92777737,507
92787780,511
92797791,517
92807828,519
92817867,518
92827878,527
92837920,528
92847960,523
92857999,524
92868008,524
92878049,520
92888087,518
92898099,513
92908140,510
92918180,512
92928192,509
92938233,504
92948275,510
92958285,506
92968325,504
92978363,505
92988372,505
92998409,504
93008451,501
93018461,506
93028504,499
93038544,505
93048554,507
93058596,510
93068637,506
93078649,512
93088692,506
93098734,512
93108775,503
93118784,513
93128824,510
93138857,510
93148866,509
93158905,510
93168942,504
93178952,504
93188994,505
93199037,508
93209050,502
93219091,507
93229132,509
93239143,506
93249185,501
93259225,509
93269236,509
93279279,508
93289322,506
93299341,505
93309393,506
93319445,509
93329466,505
93339515,505
93349568,505
93359616,502
93369635,505
93379690,508
93389744,511
93399763,511
93409813,503
93419864,503
93429881,504
93439925,507
93449973,508
93459986,510
93470029,508
93480071,507
93490081,508
93500121,507
93510162,502
93520174,507
93530217,502
93540259,502
93550268,505
93560311,512
93570357,518
93580371,520
93590413,516
93600456,524
93610497,527
93620513,519
93630559,526
93640602,525
93650618,521
93660664,519
93670708,512
93680721,516
93690765,505
93700810,511
93710822,502
93720863,503
93730902,507
93740913,506
93750954,504
93760995,497
93771006,501
93781046,502
93791088,505
93801097,503
93811138,500
93821182,501
93831196,509
93841235,509
93851275,511
93861317,505
93871329,505
93881372,509
93891414,509
93901426,501
93911468,505
93921509,502
93931519,505
93941557,507
93951595,505
93961604,499
93971645,501
93981688,503
93991697,504
94001738,501
94011779,506
94021790,501
94031832,508
94041873,506
94051883,507
94061925,502
94071963,506
94081968,509
94092004,506
94102044,506
94112084,503
94122094,507
94132132,509
94142170,506
94152176,505
94162214,506
94172254,502
94182264,503
94192304,505
94202343,510
94212345,510
94222379,503
94232417,509
94242426,508
94252458,507
94262495,510
94272503,507
94282541,508
94292580,509
94302587,508
94312627,507
94322665,505
94332673,510
94342712,508
94352750,508
94362790,516
94372801,522
94382840,523
94392876,523
94402883,529
94412922,530
94422964,530
94432972,529
94443007,522
94453047,519
94463054,520
94473090,518
94483126,512
94493133,512
94503169,513
94513207,509
94523219,505
94533259,510
94543295,507
94553300,506
94563338,502
94573375,503
94583382,504
94593416,505
94603449,505
94613484,508
94623488,512
94633524,503
94643556,511
94653563,503
94663601,503
94673641,513
94683650,510
94693690,505
94703730,505
94713737,512
94723772,510
94733809,506
94743818,501
94753856,505
94763895,505
94773905,500
94783941,499
94793976,504
94803981,505
94814016,506
94824056,507
94834063,509
94844102,506
94854144,507
94864182,506
94874191,509
94884227,504
94894264,510
94904273,503
94914310,509
94924349,507
94934356,509
94944392,504
94954432,505
94964437,505
94974474,512
94984514,503
94994523,504
95004565,503
95014607,510
95024616,510
95034657,510
95044701,508
95054710,512
95064753,501
95074796,508
95084807,501
95094851,509
95104896,509
95114939,509
95124949,507
95134990,508
95145031,515
95155044,512
95165086,520
95175128,524
95185142,520
95195190,523
95205236,530
95215249,522
95225291,526
95235329,525
95245335,519
95255375,514
95265411,513
95275419,518
95285460,507
95295501,509
95305511,508
95315553,511
95325594,501
95335606,504
95345647,506
95355687,502
95365729,498
95375741,503
95385782,502
95395828,505
95405842,502
95415886,505
95425940,510
95435962,509
95446015,508
95456066,509
95466090,512
95476144,514
95486200,509
95496222,508
95506274,511
95516326,511
95526346,510
95536398,508
95546450,509
95556471,511
95566523,509
95576573,504
95586592,505
95596646,508
95606698,503
95616747,506
95626768,508
95636822,509
95646875,504
95656897,510
95666952,503
95677006,503
95687031,501
95697084,503
95707139,508
95717160,508
95727212,510
95737267,506
95747289,506
95757338,507
95767388,511
95777411,505
95787462,505
95797512,504
95807529,509
95817579,501
95827628,507
95837648,503
95847696,501
95857745,510
95867795,504
95877815,502
95887867,511
95897916,508
95907935,503
95917982,511
95928030,511
95938048,509
95948093,517
95958144,515
95968160,522
95978208,520
95988255,524
95998272,526
96008323,528
96018373,530
96028392,526
96038444,525
96048494,521
96058507,513
96068555,515
96078604,506
96088617,512
96098658,505
96108699,511
96118741,506
96128750,506
96138789,506
96148829,506
96158840,502
96168881,510
96178924,508
96188935,501
96198974,508
96209014,508
96219023,506
96229062,507
96239101,508
96249112,504
96259151,505
96269189,512
96279199,509
96289237,505
96299276,511
96309284,512
96319321,511
96329359,507
96339368,506
96349408,506
96359450,509
96369496,505
96379509,501
96389553,502
96399599,508
96409612,504
96419654,511
96429696,508
96439708,510
96449747,512
96459787,512
96469800,513
96479843,507
96489884,506
96499898,504
96509942,511
96519986,503
96529999,510
96540039,507
96550079,510
96560090,508
96570134,510
96580178,510
96590191,504
96600234,510
96610276,508
96620315,509
96630324,503
96640362,505
96650401,509
96660412,503
96670449,505
96680487,509
96690495,507
96700535,505
96710577,509
96720584,505
96730625,510
96740666,512
96750679,513
96760720,518
96770763,522
96780773,519
96790815,526
96800860,525
96810870,523
96820911,526
96830953,519
96840963,516
96851003,519
96861044,516
96871084,516
96881093,523
96891134,516
96901172,506
96911178,507
96921221,512
96931263,509
96941272,510
96951314,506
96961357,511
96971369,504
96981412,504
96991455,506
97001467,509
97011510,512
97021554,512
97031566,512
97041607,505
97051650,512
97061662,512
97071704,514
97081743,511
97091755,509
97101798,510
97111838,502
97121881,503
97131890,508
97141933,508
97151976,503
97161989,508
97172030,507
97182071,509
97192080,504
97202121,502
97212163,498
97222174,507
97232216,503
97242258,505
97252271,505
97262318,504
97272363,505
97282375,507
97292419,506
97302460,506
97312473,507
97322514,506
97332557,507
97342570,508
97352614,509
97362656,509
97372700,509
97382711,506
97392754,504
97402796,511
97412810,506
97422850,505
97432886,505
97442898,509
97452943,509
97462986,510
97472998,508
97483041,503
97493082,508
97503092,502
97513135,511
97523179,506
97533191,510
97543235,513
97553280,516
97563292,520
97573333,518
97583376,524
97593388,522
97603432,524
97613473,526
97623517,516
97633529,521
97643570,521
97653612,515
97663624,517
97673668,515
97683711,509
97693726,506
97703771,501
97713817,509
97723831,508
97733877,505
97743921,500
97753931,498
97763975,504
97774015,506
97784023,499
97794066,503
97804107,505
97814120,507
97824165,509
97834210,509
97844226,510
97854274,512
97864318,504
97874360,514
97884378,511
97894425,510
97904471,511
97914486,508
97924532,509
97934579,504
97944594,503
97954640,507
97964685,505
97974702,505
97984748,504
97994797,508
98004818,502
98014867,509
98024915,507
98034932,506
98044980,507
98055031,509
98065049,510
98075096,508
98085146,510
98095164,508
98105212,510
98115256,505
98125302,507
98135319,511
98145369,504
98155416,508
98165432,512
98175477,509
98185522,503
98195537,502
98205586,507
98215636,509
98225657,504
98235710,510
98245760,507
98255778,509
98265826,503
98275871,511
98285883,503
98295926,511
98305970,512
98315984,515
98326025,510
98336070,519
98346085,519
98356130,520
98366173,520
98376216,525
98386232,523
98396276,522
98406320,516
98416334,513
98426378,513
98436422,514
98446436,512
98456481,506
98466527,507
98476540,508
98486584,502
98496630,505
98506644,499
98516693,506
98526742,507
98536758,505
98546806,505
98556853,508
98566872,509
98576919,504
98586968,510
98596986,511
98607035,508
98617082,505
98627125,506
98637137,511
98647184,507
98657228,503
98667240,507
98677284,505
98687332,507
98697350,509
98707399,504
98717450,513
98727466,509
98737512,505
98747560,502
98757579,512
98767628,507
98777674,509
98787691,508
98797738,506
98807788,508
98817804,510
98827853,502
98837906,507
98847931,504
98857986,503
98868040,509
98878091,501
98888106,509
98898150,504
98908197,502
98918214,503
98928258,505
98938306,509
98948320,507
98958365,509
98968413,504
98978427,507
98988473,507
98998516,505
99008530,509
99018574,511
99028616,510
99038631,512
99048678,518
99058722,514
99068735,521
99078775,527
99088816,521
99098831,528
99108875,521
99118923,529
99128972,524
99138988,519
99149035,524
99159081,518
99169101,514
99179153,512
99189205,512
99199227,509
99209279,511
99219323,510
99229338,509
99239384,501
99249431,507
99259447,498
99269491,506
99279536,503
99289550,503
99299596,501
99309640,501
99319655,507
99329699,509
99339745,501
99349760,503
99359806,510
99369853,503
99379899,507
99389916,511
99399963,503
99410010,509
99420027,505
99430072,511
99440117,510
99450133,509
99460179,508
99470224,505
99480239,503
99490284,504
99500329,509
99510345,511
99520391,510
99530437,510
99540449,506
99550496,510
99560542,510
99570558,506
99580605,508
99590651,507
99600664,504
99610707,507
99620751,506
99630797,505
99640811,505
99650856,506
99660902,502
99670915,508
99680959,510
99691005,509
99701019,507
99711064,508
99721110,508
99731123,511
99741167,508
99751215,505
99761229,507
99771268,509
99781312,510
99791331,512
99801381,510
99811427,515
99821441,519
99831490,522
99841538,530
99851553,528
99861595,527
99871639,528
99881681,528
99891693,524
99901737,524
99911782,518
99921794,519
99931836,512
99941878,512
99951890,515
99961932,512
99971977,504
99981992,508
99992037,509
100002081,507
100012098,505
100022143,510
100032189,507
100042203,504
100052246,506
100062290,507
100072304,507
100082348,501
100092393,508
100102403,505
100112447,508
100122491,504
100132534,508
100142546,503
100152590,504
100162637,511
100172652,511
100182699,509
100192746,505
100202758,510
100212803,512
100222850,511
100232864,502
100242911,508
100252957,508
100262973,501
100273020,505
100283065,511
100293077,505
100303120,503
100313163,505
100323177,509
100333223,505
100343266,508
100353281,505
100363320,509
100373358,506
100383399,503
100393407,510
100403449,505
100413491,507
100423503,510
100433545,508
100443587,508
100453597,507
100463638,509
100473678,506
100483692,511
100493737,507
100503779,510
100513791,503
100523831,503
100533873,507
100543884,506
100553925,502
100563968,501
100573978,505
100584019,503
100594061,505
100604072,512
100614115,514
100624156,513
100634198,519
100644210,524
100654252,523
100664292,523
100674302,526
100684342,529
100694385,530
100704397,521
100714441,522
100724485,518
100734497,523
100744539,514
100754578,513
100764589,516
100774628,512
100784672,511
100794683,510
100804723,506
100814763,508
100824774,509
100834821,502
100844861,509
100854873,502
100864917,501
100874959,509
100885004,501
100895018,509
100905061,509
100915102,505
100925114,510
100935155,503
100945198,511
100955207,504
100965247,506
100975288,504
100985299,509
100995341,502
101005379,507
101015389,503
101025429,508
101035470,506
101045480,508
101055523,508
101065564,501
101075577,509
101085621,508
101095663,502
101105675,508
101115717,507
101125760,507
101135804,508
101145815,504
101155855,506
101165893,503
101175903,501
101185940,510
101195982,506
101205994,505
101216036,508
101226077,499
101236087,508
101246127,510
101256171,506
101266180,507
101276220,507
101286258,506
101296264,501
101306303,509
101316346,508
101326361,504
101336406,503
101346452,500
101356465,507
101366509,510
101376551,502
101386596,506
101396610,508
101406655,509
101416701,500
101426714,510
101436759,507
101446804,506
101456819,509
101466864,511
101476906,510
101486920,513
101496967,517
101507011,521
101517023,521
101527066,523
101537111,525
101547125,522
101557166,525
101567212,519
101577227,522
101587268,513
101597307,518
101607317,507
101617361,513
101627406,509
101637452,511
101647465,504
101657509,506
101667553,507
101677570,510
101687616,509
101697663,510
101707678,507
101717724,505
101727769,509
101737780,505
101747820,505
101757861,505
101767872,507
101777914,509
101787957,507
101797970,507
101808015,506
101818059,503
101828071,506
101838117,504
101848158,501
101858169,508
101868214,510
101878254,507
101888297,506
101898311,507
101908355,508
101918401,506
101928414,504
101938453,502
101948493,505
101958502,499
101968541,506
101978582,509
101988590,503
101998634,504
102008678,500
102018689,506
102028730,506
102038774,506
102048784,503
102058823,509
102068865,501
102078878,508
102088920,501
102098964,501
102108974,508
102119020,509
102129062,510
102139102,501
102149114,506
102159158,506
102169206,507
102179220,508
102189263,509
102199307,509
102209318,508
102219360,502
102229404,512
102239419,511
102249463,507
102259506,507
102269518,510
102279562,508
102289604,509
102299618,506
102309665,506
102319709,506
102329722,510
102339767,508
102349812,508
102359828,511
102369869,510
102379914,508
102389957,517
102399967,522
102410007,522
102420045,518
102430053,525
102440091,525
102450129,518
102460138,522
102470174,524
102480211,516
102490217,514
102500253,506
102510291,508
102520298,511
102530337,504
102540374,506
102550380,502
102560417,505
102570458,507
102580467,500
102590508,497
102600548,497
102610554,504
102620592,502
102630631,507
102640671,509
102650678,505
102660717,506
102670756,504
102680767,510
102690812,506
102700855,505
102710866,508
102720909,508
102730951,509
102740960,511
102750999,506
102761038,508
102771052,504
102781095,508
102791142,509
102801156,508
102811201,508
102821242,509
102831254,507
102841295,507
102851332,501
102861342,509
102871384,507
102881423,507
102891465,510
102901474,504
102911512,500
102921550,508
102931555,501
102941594,508
102951630,509
102961642,506
102971680,508
102981722,507
102991733,511
103001770,510
103011809,501
103021822,509
103031867,512
103041910,510
103051925,507
103061970,505
103072013,510
103082024,506
103092066,507
103102108,506
103112123,506
103122164,502
103132206,505
103142246,507
103152256,510
103162300,505
103172341,506
103182356,509
103192402,511
103202450,516
103212468,512
103222515,521
103232562,527
103242575,521
103252619,523
103262665,525
103272683,522
103282728,521
103292771,521
103302781,520
103312825,516
103322872,518
103332887,513
103342931,505
103352976,512
103362990,503
103373031,508
103383071,510
103393112,509
103403125,506
103413167,503
103423210,507
103433221,508
103443262,505
103453302,508
103463310,506
103473348,509
103483389,504
103493402,509
103503443,510
103513484,509
103523496,510
103533540,504
103543585,511
103553599,507
103563643,505
103573688,508
103583701,506
103593744,511
103603785,506
103613795,502
103623839,508
103633882,508
103643926,508
103653941,503
103663988,505
103674030,506
103684042,511
103694088,509
103704134,508
103714148,511
103724192,512
103734235,511
103744248,511
103754292,510
103764335,507
103774346,507
103784386,511
103794425,503
103804432,506
103814476,510
103824520,502
103834531,504
103844573,510
103854614,511
103864624,510
103874663,510
103884706,505
103894747,505
103904759,506
103914801,511
103924842,505
103934857,507
103944902,510
103954944,506
103964959,507
103975002,509
103985043,509
103995049,511
104005085,514
104015122,516
104025130,518
104035173,522
104045217,524
104055228,526
104065271,528
104075312,530
104085321,527
104095358,530
104105399,524
104115408,520
104125449,518
104135492,517
104145535,509
104155547,512
104165589,510
104175629,511
104185643,503
104195687,503
104205729,509
104215739,509
104225785,509
104235830,502
104245845,505
104255888,505
104265931,509
104275943,510
104285986,507
104296031,513
104306043,503
104316088,511
104326135,512
104336152,512
104346198,503
104356245,513
104366260,511
104376309,510
104386356,508
104396401,510
104406417,511
104416462,511
104426505,507
104436520,512
104446564,510
104456611,508
104466625,508
104476670,508
104486714,509
104496730,504
104506777,505
104516821,502
104526835,506
104536881,506
104546926,504
104556941,504
104566987,504
104577033,508
104587046,504
104597092,511
104607139,508
104617155,508
104627202,509
104637249,508
104647299,509
104657315,510
104667363,505
104677410,510
104687423,512
104697469,510
104707515,512
104717529,510
104727574,512
104737620,510
104747636,508
104757678,509
104767721,510
104777730,509
104787772,509
104797815,511
104807828,510
104817870,514
104827912,517
104837925,517
104847969,517
104858013,520
104868025,527
104878066,528
104888106,527
104898144,529
104908151,524
104918188,529
104928229,522
104938245,523
104948291,519
104958338,516
104968357,510
104978404,507
104988450,511
104998461,514
105008502,511
105018542,509
105028551,506
105038592,509
105048634,508
105058645,511
105068685,510
105078720,503
105088729,505
105098770,510
105108811,508
105118821,510
105128863,504
105138905,504
105148949,512
105158959,510
105169000,509
105179043,509
105189057,509
105199101,511
105209143,505
105219152,510
105229193,509
105239237,508
105249249,510
105259288,500
105269329,504
105279339,507
105289379,511
105299419,509
105309427,508
105319464,505
105329502,508
105339509,507
105349546,511
105359586,508
105369595,511
105379634,509
105389672,506
105399712,511
105409718,507
105419753,506
105429793,504
105439803,502
105449843,510
105459883,505
105469890,503
105479931,505
105489971,507
105499983,511
105510022,510
105520061,507
105530072,510
105540110,506
105550146,506
105560157,505
105570200,505
105580244,508
105590259,508
105600303,505
105610349,507
105620365,508
105630408,507
105640449,506
105650488,509
105660497,514
105670542,509
105680592,519
105690614,523
105700667,524
105710720,525
105720742,521
105730793,529
105740844,524
105750863,525
105760911,519
105770957,517
105780971,519
105791016,512
105801059,511
105811070,510
105821111,502
105831152,502
105841166,506
105851210,508
105861256,500
105871270,507
105881315,506
105891358,501
105901397,502
105911405,507
105921447,504
105931485,505
105941495,510
105951536,504
105961575,512
105971582,507
105981622,504
105991664,511
106001675,503
106011716,506
106021755,502
106031761,509
106041803,511
106051845,512
106061856,507
106071896,507
106081937,506
106091948,506
106101991,506
106112032,508
106122043,504
106132084,507
106142128,502
106152170,503
106162183,503
106172226,509
106182269,508
106192281,503
106202323,508
106212363,508
106222375,506
106232418,510
106242458,502
106252470,501
106262513,509
106272553,511
106282562,506
106292604,508
106302643,506
106312652,510
106322691,507
106332728,511
106342737,509
106352775,508
106362816,506
106372826,509
106382863,508
106392901,508
106402940,508
106412948,502
106422988,510
106433028,509
106443033,508
106453073,503
106463109,502
106473117,503
106483155,510
106493195,509
106503206,512
106513245,513
106523282,518
106533287,519
106543324,514
106553361,520
106563368,520
106573407,528
106583443,528
106593452,529
106603492,525
106613533,522
106623536,518
106633571,512
106643609,512
106653649,506
106663656,511
106673695,512
106683739,504
106693750,505
106703789,500
106713827,504
106723835,505
106733872,505
106743911,503
106753919,505
106763959,509
106773998,509
106784004,510
106794044,508
106804083,506
106814093,506
106824134,508
106834173,508
106844184,510
106854221,512
106864258,509
106874264,506
106884301,506
106894340,502
106904381,503
106914390,506
106924431,508
106934472,505
106944481,505
106954521,500
106964561,505
106974570,501
106984608,503
106994647,508
107004655,503
107014697,508
107024741,508
107034753,508
107044791,508
107054830,509
107064838,511
107074876,508
107084916,511
107094925,511
107104962,503
107115000,510
107125007,507
107135043,511
107145079,509
107155117,510
107165121,506
107175157,506
107185195,504
107195202,504
107205238,507
107215277,506
107225282,509
107235319,510
107245359,509
107255368,507
107265406,508
107275443,512
107285453,512
107295494,517
107305535,525
107315544,526
107325584,525
107335624,530
107345635,522
107355677,528
107365722,526
107375735,526
107385781,520
107395826,514
107405868,513
107415879,509
107425923,513
107435964,513
107445977,510
107456021,508
107466059,509
107476067,512
107486107,509
107496146,511
107506152,508
107516192,502
107526235,509
107536247,511
107546292,504
107556334,504
107566350,502
107576398,510
107586449,513
107596467,511
107606513,504
107616559,509
107626574,512
107636622,511
107646667,507
107656710,512
107666725,511
107676770,503
107686815,507
107696830,511
107706877,508
107716923,502
107726939,500
107736986,507
107747030,504
107757043,507
107767088,502
107777136,508
107787154,503
107797202,502
107807246,502
107817265,511
107827312,504
107837359,510
107847375,506
107857422,510
107867470,506
107877488,507
107887536,509
107897586,508
107907634,509
107917649,509
107927693,502
107937740,501
107947752,499
107957797,507
107967840,504
107977854,504
107987901,506
107997949,508
108007968,506
108018017,506
108028066,508
108038082,506
108048126,512
108058170,517
108068179,514
108078222,522
108088264,520
108098277,521
108108321,524
108118368,527
108128383,530
108138426,526
108148468,517
108158512,517
108168522,514
108178564,510
108188604,513
108198620,507
108208661,504
108218704,508
108228715,507
108238756,504
108248796,508
108258808,506
108268849,504
108278890,509
108288902,506
108298947,507
108308992,503
108319005,507
108329048,508
108339092,511
108349106,510
108359150,509
108369196,505
108379212,506
108389258,512
108399305,508
108409350,508
108419366,511
108429415,508
108439461,502
108449479,506
108459527,505
108469576,509
108479591,507
108489634,507
108499675,502
108509685,505
108519730,504
108529770,501
108539779,509
108549820,509
108559860,501
108569869,509
108579908,509
108589949,507
108599960,505
108610004,508
108620054,506
108630073,509
108640123,504
108650172,506
108660217,508
108670229,509
108680273,510
108690314,508
108700324,507
108710367,502
108720410,507
108730424,507
108740469,507
108750515,510
108760529,509
108770571,508
108780614,504
108790628,509
108800672,509
108810715,506
108820730,509
108830774,506
108840816,508
108850829,518
108860873,518
108870917,516
108880931,527
108890974,528
108901017,531
108911059,524
108921069,526
108931112,526
108941156,521
108951166,523
108961208,516
108971250,516
108981262,513
108991304,511
109001348,501
109011363,509
109021403,510
109031443,504
109041454,506
109051495,506
109061536,503
109071545,506
109081586,506
109091626,506
109101639,503
109111683,507
109121728,502
109131742,512
109141786,504
109151829,505
109161871,508
109171886,513
109181930,507
109191975,511
109201990,504
109212034,509
109222078,503
109232090,509
109242133,503
109252176,509
109262190,503
109272235,505
109282279,501
109292294,505
109302340,500
109312383,504
109322397,508
109332440,510
109342479,507
109352490,510
109362532,510
109372576,508
109382588,511
109392629,509
109402674,510
109412720,511
109422732,510
109432774,503
109442819,506
109452833,505
109462878,508
109472922,500
109482935,506
109492978,502
109503019,501
109513031,509
109523069,505
109533105,506
109543112,507
109553152,500
109563194,507
109573206,504
109583249,501
109593295,507
109603314,502
109613359,505
109623405,506
109633420,513
109643466,510
109653505,517
109663545,520
109673554,526
109683594,522
109693635,521
109703644,519
109713686,527
109723729,524
109733738,522
109743777,516
109753816,519
109763826,514
109773869,509
109783910,512
109793921,510
109803963,508
109814006,509
109824016,509
109834058,505
109844100,504
109854114,501
109864159,509
109874204,500
109884217,502
109894257,506
109904301,508
109914343,509
109924352,507
109934392,509
109944436,506
109954450,504
109964496,503
109974540,506
109984551,508
109994592,500
110004636,508
110014648,501
110024689,507
110034733,501
110044744,507
110054787,504
110064829,505
110074840,502
110084874,509
110094908,508
110104917,501
110114956,508
110124999,509
110135009,501
110145051,504
110155091,509
110165132,511
110175142,502
110185183,505
110195225,507
110205236,507
110215278,510
110225320,506
110235330,504
110245370,507
110255410,502
110265420,504
110275461,499
110285501,508
110295507,508
110305547,505
110315591,508
110325600,506
110335643,507
110345680,506
110355694,501
110365736,503
110375778,505
110385789,505
110395829,505
110405873,508
110415916,500
110425928,504
110435968,510
110446010,507
110456020,513
110466063,517
110476101,519
110486114,518
110496159,521
110506202,515
110516213,516
110526255,520
110536298,516
110546310,517
110556353,516
110566393,511
110576404,512
110586444,510
110596484,505
110606494,508
110616536,508
110626579,504
110636589,507
110646630,508
110656674,505
110666718,505
110676734,505
110686774,506
110696812,508
110706819,508
110716856,510
110726895,512
110736905,509
110746943,512
110756983,510
110766995,509
110777035,508
110787079,503
110797090,512
110807134,509
110817178,508
110827186,507
110837226,504
110847266,503
110857276,507
110867319,507
110877359,509
110887368,508
110897409,505
110907451,504
110917494,505
110927507,507
110937550,504
110947594,505
110957608,506
110967649,506
110977692,508
110987704,502
110997745,505
111007788,506
111017797,504
111027839,508
111037879,505
111047891,506
111057934,503
111067974,506
111077983,505
111088023,508
111098064,507
111108077,505
111118115,508
111128150,511
111138155,501
111148193,510
111158230,508
111168270,502
111178278,504
111188317,508
111198354,510
111208361,509
111218399,507
111228434,513
111238443,509
111248479,511
111258519,521
111268530,519
111278569,524
111288606,522
111298616,524
111308654,523
111318690,521
111328695,521
111338731,518
111348770,517
111358774,515
111368811,516
111378851,505
111388860,505
111398902,508
111408946,509
111418987,505
111428997,498
111439038,506
111449080,508
111459089,504
111469129,507
111479170,506
111489179,506
111499216,512
111509256,508
111519265,507
111529305,509
111539344,512
111549353,510
111559395,512
111569437,514
111579449,512
111589492,510
111599533,505
111609542,506
111619584,507
111629626,500
111639639,507
111649682,501
111659724,505
111669770,506
111679782,506
111689821,507
111699863,509
111709876,510
111719918,508
111729957,512
111739967,510
111750003,508
111760041,503
111770051,506
111780088,507
111790125,512
111800130,503
111810164,510
111820202,510
111830210,511
111840248,510
111850283,508
111860289,503
111870327,507
111880367,508
111890376,509
111900417,506
111910458,506
111920495,508
111930504,506
111940540,511
111950576,509
111960585,510
111970623,505
111980656,507
111990658,514
112000696,515
112010734,519
112020745,518
112030789,527
112040832,527
112050844,528
112060882,530
112070918,522
112080926,520
112090964,524
112101001,521
112111009,521
112121048,513
112131085,518
112141092,516
112151130,506
112161166,512
112171202,505
112181209,508
112191249,512
112201288,511
112211291,508
112221328,509
112231367,507
112241376,509
112251415,500
112261457,504
112271469,501
112281509,509
112291550,512
112301559,509
112311601,512
112321646,511
112331660,510
112341704,511
112351748,508
112361760,509
112371798,508
112381837,512
112391843,502
112401883,504
112411921,509
112421961,506
112431969,504
112442007,506
112452045,511
112462051,508
112472086,504
112482123,510
112492130,504
112502170,506
112512209,506
112522217,509
112532256,509
112542296,513
112552305,511
112562345,511
112572384,508
112582392,512
112592429,512
112602465,511
112612473,510
112622511,508
112632550,502
112642556,504
112652596,510
112662638,504
112672681,509
112682692,508
112692733,505
112702771,505
112712777,507
112722817,509
112732856,508
112742868,512
112752910,514
112762952,512
112772963,520
112783006,519
112793049,518
112803058,518
112813097,526
112823133,526
112833142,519
112843180,522
112853214,517
112863223,519
112873261,518
112883298,513
112893302,508
112903341,509
112913383,504
112923426,505
112933434,514
112943473,501
112953516,508
112963530,507
112973574,505
112983616,508
112993630,511
113003675,508
113013719,500
113023728,507
113033769,504
113043813,509
113053824,503
113063866,512
113073906,507
113083918,506
113093961,512
113104005,507
113114019,503
113124062,506
113134108,508
113144120,511
113154161,508
113164202,508
113174244,505
113184255,508
113194295,507
113204335,505
113214343,506
113224385,504
113234426,508
113244434,508
113254474,509
113264514,506
113274524,509
113284562,508
113294605,511
113304614,506
113314653,503
113324693,511
113334704,511
113344742,508
113354778,512
113364789,511
113374828,511
113384869,506
113394879,508
113404922,509
113414967,507
113425012,507
113435027,509
113445073,509
113455119,509
113465132,504
113475173,502
113485212,502
113495225,504
113505269,510
113515315,514
113525329,509
113535367,519
113545409,519
113555419,517
113565462,518
113575509,519
113585524,527
113595570,521
113605612,525
113615621,524
113625661,519
113635702,519
113645712,513
113655746,506
113665784,507
113675828,509
113685841,501
113695882,508
113705925,502
113715933,502
113725972,500
113736015,505
113746028,507
113756073,499
113766117,508
113776131,507
113786174,508
113796215,510
113806226,512
113816266,510
113826311,507
113836324,510
113846365,511
113856406,511
113866417,507
113876460,509
113886496,508
113896504,509
113906542,503
113916577,508
113926612,510
113936620,507
113946659,507
113956697,508
113966703,507
113976740,503
113986776,508
113996781,501
114006819,504
114016853,504
114026857,506
114036892,508
114046927,508
114056933,507
114066966,501
114077001,507
114087006,504
114097041,501
114107079,510
114117084,507
114127117,508
114137157,510
114147161,511
114157198,502
114167236,502
114177277,506
114187286,504
114197326,507
114207360,508
114217363,507
114227399,507
114237436,510
114247446,500
114257487,508
114267528,507
114277536,509
114287574,507
114297613,500
114307621,508
114317660,504
114327700,509
114337712,511
114347752,522
114357792,523
114367804,526
114377842,527
114387877,526
114397885,528
114407926,523
114417966,522
114428006,524
114438017,518
114448055,513
114458093,517
114468104,511
114478145,516
114488185,514
114498194,514
114508232,512
114518271,513
114528279,504
114538318,508
114548356,507
114558365,506
114568407,507
114578447,506
114588459,501
114598495,502
114608531,508
114618536,509
114628572,503
114638608,508
114648613,509
114658653,509
114668692,501
114678731,508
114688739,508
114698778,512
114708817,509
114718826,510
114728867,510
114738908,503
114748917,511
114758959,508
114768996,501
114779005,510
114789044,510
114799084,509
114809094,503
114819133,503
114829173,508
114839181,503
114849216,510
114859253,502
114869258,507
114879293,510
114889327,510
114899329,504
114909363,505
114919402,508
114929439,510
114939448,508
114949489,506
114959527,510
114969534,507
114979573,508
114989614,509
114999621,509
115009661,508
115019702,506
115029711,507
115039747,508
115049787,509
115059796,509
115069834,501
115079867,507
115089873,504
115099912,502
115109951,510
115119957,506
115129992,510
115140030,511
115150032,513
115160070,515
115170105,521
115180141,521
115190151,523
115200192,525
115210231,519
115220239,522
115230275,523
115240310,515
115250314,518
115260349,513
115270382,509
115280384,509
115290418,512
115300455,503
115310462,502
115320501,507
115330540,511
115340548,504
115350588,505
115360629,509
115370641,507
115380685,507
115390726,501
115400734,505
115410772,505
115420814,506
115430856,502
115440870,507
115450912,509
115460956,506
115470967,508
115481007,507
115491046,512
115501056,512
115511098,512
115521136,509
115531144,507
115541178,508
115551214,505
115561220,506
115571260,505
115581299,509
115591306,501
115601345,509
115611384,500
115621389,502
115631427,501
115641466,503
115651475,499
115661517,507
115671556,508
115681597,508
115691605,508
115701647,501
115711688,510
115721700,504
115731738,506
115741779,511
115751787,508
115761825,509
115771863,508
115781870,512
115791911,506
115801954,510
115811967,501
115822012,509
115832057,507
115842067,508
115852106,506
115862149,507
115872158,502
115882198,506
115892238,506
115902251,503
115912289,505
115922329,507
115932369,506
115942377,511
115952414,508
115962453,505
115972463,503
115982506,510
115992543,511
116002550,516
116012590,515
116022628,519
116032635,521
116042671,525
116052710,524
116062719,524
116072753,524
116082789,524
116092793,518
116102831,520
116112867,517
116122875,512
116132913,510
116142952,510
116152956,511
116162991,503
116173024,508
116183056,508
116193057,504
116203089,503
116213125,499
116223132,506
116233169,508
116243203,507
116253211,501
116263249,509
116273289,508
116283302,507
116293343,505
116303385,508
116313395,510
116323436,507
116333480,501
116343495,506
116353538,504
116363580,503
116373591,508
116383631,501
116393673,500
116403683,504
116413722,504
116423762,504
116433806,498
116443819,499
116453863,504
116463908,503
116473917,505
116483960,507
116494006,511
116504018,511
116514060,510
116524101,507
116534117,507
116544165,508
116554210,506
116564228,505
116574277,508
116584321,505
116594326,508
116604366,508
116614408,506
116624416,502
116634457,505
116644498,500
116654508,497
116664548,504
116674586,510
116684622,503
116694628,506
116704664,508
116714700,501
116724709,504
116734751,510
116744793,509
116754806,501
116764848,508
116774890,510
116784898,507
116794937,508
116804976,508
116814984,499
116825023,501
116835059,507
116845061,511
116855094,508
116865133,512
116875140,510
116885177,516
116895214,514
116905223,521
116915259,520
116925296,519
116935336,518
116945345,522
116955384,516
116965422,519
116975429,512
116985470,512
116995510,513
117005517,511
117015553,512
117025591,508
117035597,512
117045636,507
117055676,501
117065686,507
117075723,509
117085758,507
117095766,503
117105803,509
117115837,509
117125845,512
117135880,503
117145920,512
117155929,506
117165970,511
117176008,505
117186044,515
117196052,512
117206088,511
117216127,512
117226132,509
117236170,504
117246208,508
117256218,511
117266258,511
117276298,510
117286308,502
117296346,511
117306382,505
117316388,508
117326425,512
117336464,512
117346473,506
117356514,512
117366554,507
117376562,509
117386599,508
117396636,502
117406641,509
117416678,501
117426715,506
117436750,506
117446756,509
117456794,509
117466829,507
117476833,507
117486869,507
117496904,508
117506909,506
117516942,509
117526978,501
117536984,505
117547019,502
117557055,508
117567058,509
117577089,509
117587124,508
117597127,508
117607160,509
117617197,510
117627205,507
117637242,510
117647281,518
117657290,516
117667331,520
117677371,523
117687411,518
117697419,521
117707451,523
117717488,522
117727494,524
117737531,514
117747567,520
117757575,513
117767613,512
117777649,512
117787652,511
117797690,510
117807728,508
117817738,505
117827775,508
117837815,505
117847824,511
117857863,503
117867904,509
117877915,503
117887957,511
117897999,510
117908010,511
117918050,510
117928090,505
117938126,508
117948129,512
117958168,507
117968207,507
117978217,507
117988256,511
117998293,510
118008300,511
118018336,509
118028374,508
118038382,511
118048423,505
118058465,507
118068474,504
118078512,504
118088548,510
118098553,505
118108592,510
118118629,507
118128638,505
118138678,503
118148716,504
118158727,509
118168769,503
118178810,506
118188849,505
118198858,507
118208898,508
118218938,506
118228948,503
118238988,507
118249030,502
118259039,509
118269077,503
118279114,504
118289122,508
118299166,509
118309202,504
118319211,507
118329252,511
118339289,511
118349301,510
118359344,507
118369384,512
118379393,511
118389438,512
118399488,517
118409503,520
118419547,517
118429596,519
118439641,528
118449655,528
118459704,528
118469751,523
118479770,526
118489819,523
118499870,515
118509891,512
118519937,516
118529983,510
118540000,513
118550046,514
118560091,507
118570106,504
118580153,510
118590198,511
118600213,504
118610260,508
118620300,503
118630314,511
118640358,506
118650400,506
118660414,509
118670459,511
118680506,513
118690553,513
118700570,505
118710616,512
118720659,513
118730670,513
118740711,511
118750751,512
118760764,518
118770804,506
118780849,506
118790864,504
118800910,509
118810954,504
118820965,503
118831006,499
118841045,502
118851054,508
118861096,502
118871137,507
118881148,510
118891188,504
118901229,510
118911243,509
118921291,511
118931335,512
118941379,504
118951396,509
118961439,508
118971485,505
118981498,505
118991544,512
119001591,505
119011608,508
119021656,506
119031702,510
119041711,511
119051749,504
119061790,511
119071801,512
119081848,512
119091897,507
119101916,509
119111962,506
119122007,504
119132021,508
119142062,502
119152106,506
119162119,507
119172162,507
119182209,517
119192256,520
119202277,517
119212326,518
119222371,525
119232386,522
119242431,522
119252475,521
119262489,522
119272535,521
119282580,513
119292597,519
119302646,512
119312697,514
119322718,514
119332766,510
119342809,510
119352827,512
119362874,509
119372920,510
119382937,511
119392983,508
119403030,509
119413047,507
119423094,507
119433139,506
119443187,503
119453206,510
119463255,506
119473304,506
119483323,508
119493371,507
119503418,513
119513435,512
119523479,512
119533528,506
119543547,512
119553597,513
119563645,509
119573662,511
119583715,510
119593764,503
119603782,506
119613831,506
119623881,506
119633897,503
119643944,502
119653988,509
119664004,511
119674053,501
119684099,508
119694144,510
119704161,512
119714208,507
119724255,512
119734271,506
119744316,510
119754358,509
119764373,513
119774423,511
119784475,505
119794495,504
119804544,509
119814591,508
119824604,512
119834651,508
119844698,510
119854717,508
119864763,505
119874811,507
119884829,506
119894878,508
119904928,501
119914949,507
119924998,505
119935046,506
119945093,506
119955113,501
119965162,510
119975209,510
119985221,509
119995266,512
120005314,516
120015331,522
120025376,525
120035422,526
120045441,520
120055492,525
120065539,522
120075556,518
120085606,512
120095653,517
120105669,511
120115714,506
120125756,512
120135772,505
120145819,503
120155866,510
120165884,508
120175931,508
120185976,509
120196022,509
120206038,504
120216084,505
120226131,507
120236148,510
120246196,504
120256240,506
120266258,511
120276306,506
120286352,512
120296364,508
120306406,512
120316450,512
120326462,506
120336504,510
120346548,512
120356564,509
120366609,508
120376655,504
120386670,505
120396714,510
120406761,510
120416774,510
120426818,509
120436864,509
120446911,506
120456928,510
120466976,508
120477021,503
120487035,512
120497081,512
120507127,508
120517144,510
120527191,506
120537237,505
120547253,510
120557297,509
120567343,508
120577357,508
120587404,505
120597451,509
120607468,508
120617513,503
120627561,509
120637575,511
120647616,505
120657655,508
120667666,508
120677712,511
120687758,509
120697807,508
120707824,508
120717869,507
120727913,508
120737928,511
120747972,512
120758017,505
120768032,507
120778079,514
120788124,517
120798138,514
120808185,520
120818231,521
120828247,516
120838295,524
120848341,524
120858357,524
120868400,518
120878447,513
120888463,514
120898511,510
120908556,509
120918573,508
120928621,511
120938666,510
120948713,509
120958729,505
120968778,504
120978825,505
120988839,510
120998880,506
121008925,507
121018938,506
121028983,510
121039025,511
121049040,515
121059084,511
121069128,513
121079139,511
121089184,511
121099229,504
121109243,505
121119287,509
121129329,504
121139344,506
121149389,510
121159430,503
121169442,505
121179485,504
121189529,501
121199575,509
121209589,509
121219638,507
121229682,510
121239698,502
121249744,507
121259788,503
121269799,506
121279845,505
121289889,508
121299905,500
121309953,507
121319996,507
121330009,509
121340054,499
121350097,504
121360110,499
121370155,504
121380203,504
121390219,503
121400266,504
121410311,503
121420328,500
121430375,502
121440418,502
121450459,509
121460476,509
121470520,508
121480564,505
121490577,509
121500621,508
121510663,509
121520677,506
121530719,509
121540766,511
121550781,507
121560825,504
121570867,510
121580877,515
121590921,520
121600963,521
121610975,522
121621018,525
121631059,522
121641071,523
121651116,527
121661162,519
121671179,524
121681227,515
121691275,520
121701322,516
121711334,507
121721378,511
121731424,509
121741439,508
121751486,509
121761532,501
121771547,506
121781593,508
121791639,504
121801658,505
121811707,507
121821754,503
121831770,501
121841815,503
121851860,511
121861874,511
121871916,504
121881956,510
121891963,514
121902003,512
121912046,505
121922053,510
121932094,503
121942139,503
121952182,505
121962194,504
121972240,511
121982283,502
121992292,505
122002333,506
122012370,506
122022378,508
122032417,507
122042459,508
122052473,507
122062516,506
122072561,511
122082575,506
122092619,501
122102659,506
122112672,507
122122716,504
122132762,506
122142775,505
122152816,511
122162859,507
122172868,509
122182908,501
122192947,503
122202991,506
122212999,508
122223035,511
122233073,504
122243082,508
122253125,511
122263163,510
122273172,508
122283213,501
122293251,502
122303261,501
122313302,504
122323345,510
122333356,510
122343403,513
122353447,511
122363459,512
122373501,518
122383544,518
122393553,521
122403596,523
122413636,518
122423648,523
122433694,520
122443735,518
122453774,513
122463783,514
122473820,514
122483858,513
122493866,505
122503905,508
122513946,509
122523959,505
122534002,503
122544045,508
122554058,499
122564103,506
122574146,505
122584158,507
122594197,509
122604238,504
122614246,506
122624286,511
122634330,499
122644341,507
122654384,513
122664425,505
122674436,503
122684478,504
122694519,504
122704562,509
122714574,510
122724617,501
122734660,509
122744672,509
122754718,508
122764761,506
122774772,509
122784811,500
122794853,510
122804868,507
122814913,505
122824958,507
122834970,509
122845014,506
122855058,510
122865071,506
122875118,500
122885162,505
122895178,506
122905227,507
122915270,510
122925287,505
122935333,504
122945379,509
122955422,509
122965434,504
122975476,502
122985520,509
122995536,508
123005580,511
123015625,509
123025644,506
123035694,511
123045746,509
123055770,511
123065821,513
123075873,516
123085894,520
123095946,524
123105991,519
123116000,523
123126040,527
123136080,529
123146090,527
123156130,518
123166169,522
123176175,519
123186213,515
123196254,516
123206297,509
123216311,509
123226354,510
123236396,507
123246411,510
123256458,500
123266502,500
123276512,506
123286559,500
123296602,501
123306616,501
123316661,504
123326702,509
123336713,500
123346756,504
123356800,506
123366814,503
123376857,504
123386904,508
123396919,508
123406963,510
123417007,504
123427022,501
123437069,504
123447114,510
123457160,507
123467175,506
123477218,512
123487262,510
123497273,506
123507316,502
123517359,500
123527368,504
123537410,506
123547452,507
123557465,510
123567508,508
123577549,511
123587559,504
123597600,503
123607641,508
123617654,510
123627698,510
123637738,502
123647748,508
123657787,501
123667831,504
123677846,499
123687889,499
123697926,507
123707966,505
123717975,504
123728016,502
123738058,508
123748068,501
123758110,507
123768153,510
123778166,512
123788209,515
123798252,518
123808267,517
123818308,521
123828352,520
123838366,519
123848406,521
123858449,519
123868464,524
123878507,523
123888549,518
123898561,515
123908605,516
123918644,514
123928654,511
123938697,509
123948738,509
123958775,511
123968786,510
123978826,505
123988868,506
123998877,508
124008914,503
124018958,502
124028968,507
124039011,506
124049051,507
124059062,507
124069106,503
124079147,507
124089159,502
124099206,508
124109255,511
124119269,504
124129312,509
124139357,508
124149372,510
124159418,509
124169463,507
124179477,508
124189521,506
124199566,509
124209610,505
124219624,509
124229669,504
124239715,509
124249729,508
124259771,508
124269814,508
124279827,504
124289870,512
124299912,509
124309925,507
124319969,509
124330015,511
124340027,510
124350073,501
124360116,506
124370128,502
124380171,505
124390204,508
124400211,507
124410249,502
124420287,502
124430298,508
124440337,508
124450377,509
124460414,501
124470421,507
124480457,508
124490498,505
124500510,506
124510549,505
124520590,505
124530598,508
124540634,508
124550674,506
124560686,516
124570731,516
124580774,517
124590785,522
124600828,521
124610868,520
124620875,522
124630913,525
124640951,524
124650959,521
124660998,514
124671035,515
124681042,514
124691081,510
124701123,508
124711169,506
124721182,504
124731222,504
124741263,505
124751274,507
124761318,510
124771360,508
124781373,505
124791417,504
124801460,504
124811470,507
124821511,508
124831554,507
124841565,508
124851611,507
124861656,510
124871673,508
124881715,504
124891760,510
124901773,504
124911819,503
124921864,510
124931880,506
124941924,510
124951970,507
124962017,508
124972031,505
124982075,506
124992117,507
125002131,509
125012175,507
125022221,506
125032237,503
125042284,502
125052329,507
125062340,503
125072384,502
125082431,509
125092448,508
125102494,510
125112538,510
125122556,510
125132604,511
125142650,509
125152664,510
125162710,508
125172759,508
125182775,512
125192822,508
125202868,504
125212916,507
125222935,507
125232983,504
125243029,505
125253049,505
125263099,508
125273149,506
125283169,507
125293223,507
125303274,512
125313294,508
125323343,512
125333392,515
125343408,516
125353454,516
125363499,515
125373515,517
125383562,518
125393607,516
125403624,523
125413668,521
125423713,516
125433729,517
125443776,517
125453822,515
125463871,512
125473887,511
125483935,509
125493978,505
125503994,508
125514038,508
125524081,508
125534097,506
125544141,509
125554185,508
125564201,503
125574246,509
125584290,503
125594303,505
125604348,505
125614393,510
125624410,508
125634456,511
125644504,508
125654520,509
125664564,510
125674607,512
125684620,512
125694664,511
125704710,510
125714755,511
125724771,508
125734815,507
125744859,509
125754875,502
125764923,502
125774969,502
125784983,506
125795025,503
125805062,506
125815077,504
125825125,505
125835174,511
125845191,512
125855240,506
125865290,508
125875307,511
125885357,507
125895405,507
125905422,505
125915469,507
125925516,509
125935534,512
125945578,512
125955624,511
125965670,512
125975686,511
125985728,511
125995772,512
126005788,507
126015828,505
126025870,507
126035881,509
126045924,504
126055970,513
126065983,510
126076025,514
126086066,515
126096074,512
126106116,521
126116157,522
126126168,515
126136211,526
126146255,527
126156267,520
126166309,522
126176351,516
126186364,516
126196407,516
126206449,521
126216491,517
126226499,516
126236539,514
126246583,510
126256597,512
126266642,512
126276687,509
126286703,511
126296749,511
126306795,510
126316810,510
126326854,508
126336898,509
126346913,505
126356955,508
126366998,511
126377011,512
126387055,512
126397097,511
126407107,511
126417151,508
126427195,506
126437208,512
126447248,508
126457291,510
126467340,504
126477358,509
126487404,510
126497448,512
126507462,507
126517509,508
126527551,507
126537564,514
126547610,511
126557655,503
126567670,505
126577714,511
126587757,509
126597766,509
126607807,501
126617847,509
126627857,508
126637902,509
126647949,505
126657966,504
126668013,504
126678062,501
126688079,508
126698126,508
126708171,507
126718215,504
126728226,510
126738270,509
126748314,509
126758330,501
126768377,505
126778424,503
126788441,508
126798485,510
126808524,510
126818535,509
126828576,508
126838613,503
126848621,508
126858658,511
126868695,515
126878704,511
126888743,514
126898783,520
126908792,520
126918834,526
126928876,527
126938885,525
126948926,526
126958967,526
126969008,519
126979014,519
126989052,520
126999088,520
127009099,518
127019139,513
127029180,515
127039190,509
127049231,515
127059274,504
127069287,503
127079330,505
127089369,504
127099382,504
127109425,501
127119472,511
127129488,502
127139528,504
127149567,509
127159575,509
127169617,512
127179657,512
127189663,512
127199702,509
127209736,513
127219770,512
127229777,507
127239816,504
127249857,508
127259870,509
127269913,511
127279958,503
127289970,503
127300013,509
127310056,501
127320073,510
127330119,506
127340160,511
127350172,503
127360212,512
127370251,509
127380258,511
127390298,510
127400339,505
127410347,504
127420386,509
127430428,509
127440436,503
127450475,505
127460517,511
127470558,510
127480564,512
127490604,509
127500646,501
127510658,507
127520703,507
127530747,505
127540760,503
127550804,510
127560844,503
127570847,508
127580890,509
127590933,502
127600942,510
127610978,506
127621017,511
127631027,505
127641070,507
127651112,505
127661122,508
127671162,510
127681201,511
127691210,507
127701247,509
127711282,519
127721321,518
127731332,517
127741375,521
127751418,531
127761427,528
127771466,528
127781506,528
127791517,527
127801560,521
127811605,520
127821620,515
127831668,514
127841717,505
127851730,504
127861772,504
127871815,503
127881827,504
127891869,502
127901910,507
127911924,507
127921970,506
127932013,507
127942024,508
127952068,508
127962111,510
127972157,513
127982170,510
127992212,505
128002256,507
128012267,514
128022310,505
128032354,507
128042366,510
128052408,512
128062447,506
128072453,509
128082491,506
128092535,512
128102547,503
128112591,508
128122636,503
128132647,507
128142685,509
128152724,508
128162734,508
128172775,509
128182817,501
128192827,505
128202868,506
128212909,510
128222953,502
128232964,508
128243006,507
128253044,505
128263055,509
128273094,504
128283134,510
128293147,504
128303189,510
128313232,509
128323246,509
128333291,507
128343336,504
128353350,508
128363395,511
128373437,504
128383449,507
128393493,509
128403534,503
128413545,506
128423589,506
128433626,505
128443628,506
128453664,508
128463703,506
128473744,506
128483754,505
128493795,508
128503835,503
128513845,512
128523888,511
128533931,510
128543942,522
128553985,525
128564026,517
128574038,519
128584082,526
128594128,527
128604143,521
128614189,526
128624232,520
128634245,518
128644288,512
128654332,508
128664346,512
128674391,512
128684436,503
128694451,507
128704493,504
128714540,510
128724584,503
128734599,509
128744645,506
128754689,507
128764707,506
128774752,505
128784797,502
128794817,503
128804869,503
128814919,509
128824934,507
128834980,512
128845027,506
128855046,512
128865095,512
128875144,512
128885156,506
128895201,510
128905249,505
128915265,504
128925314,509
128935363,511
128945380,505
128955430,503
128965477,502
128975522,508
128985543,502
128995594,504
129005643,501
129015662,506
129025707,500
129035754,509
129045771,505
129055820,509
129065867,507
129075884,506
129085932,510
129095981,500
129105996,507
129116045,505
129126092,507
129136107,501
129146146,506
129156190,509
129166204,508
129176248,500
129186293,503
129196308,501
129206355,506
129216403,499
129226452,505
129236473,504
129246529,500
129256583,507
129266598,506
129276643,501
129286690,506
129296706,506
129306755,508
129316804,507
129326825,501
129336876,512
129346925,511
129356944,517
129366993,512
129377041,520
129387060,521
129397107,527
129407155,527
129417173,532
129427224,525
129437277,521
129447295,515
129457341,523
129467394,516
129477446,518
129487466,515
129497515,512
129507560,508
129517573,509
129527616,505
129537660,499
129547677,507
129557724,506
129567774,498
129577791,501
129587840,500
129597888,501
129607906,504
129617954,504
129628000,508
129638020,508
129648071,509
129658121,511
129668139,509
129678187,508
129688232,511
129698247,508
129708292,510
129718344,502
129728392,508
129738411,508
129748462,507
129758511,508
129768530,507
129778580,506
129788631,509
129798649,508
129808696,507
129818742,506
129828754,506
129838797,507
129848839,508
129858851,509
129868898,508
129878945,503
129888959,507
129899001,507
129909044,504
129919057,508
129929102,506
129939146,506
129949159,502
129959205,507
129969259,509
129979307,509
129989323,505
129999367,503
130009416,510
130019433,503
130029480,507
130039525,507
130049540,504
130059586,507
130069632,502
130079647,511
130089691,508
130099731,510
130109743,507
130119784,513
130129826,510
130139835,515
130149879,513
130159923,518
130169933,521
130179975,523
130190019,524
130200036,527
130210083,523
130220129,517
130230176,520
130240193,516
130250239,516
130260283,509
130270300,510
130280346,508
130290393,510
130300410,508
130310454,506
130320500,504
130330516,505
130340561,504
130350606,506
130360619,505
130370659,510
130380703,508
130390715,507
130400762,502
130410808,510
130420823,508
130430869,511
130440914,508
130450928,509
130460974,510
130471021,508
130481068,509
130491083,509
130501130,509
130511175,507
130521190,505
130531232,510
130541277,503
130551293,509
130561340,504
130571386,508
130581400,505
130591444,507
130601486,508
130611499,510
130621540,504
130631586,509
130641602,509
130651647,506
130661693,502
130671710,511
130681756,508
130691800,507
130701813,508
130711855,508
130721898,507
130731941,507
130741955,500
130752003,510
130762049,505
130772066,500
130782113,504
130792160,506
130802179,509
130812228,501
130822274,502
130832290,507
130842338,505
130852387,512
130862404,515
130872451,516
130882499,520
130892518,515
130902568,523
130912618,524
130922635,522
130932680,519
130942725,520
130952739,524
130962787,520
130972832,515
130982880,513
130992894,515
131002942,506
131012987,511
131023002,502
131033045,506
131043091,510
131053109,505
131063156,505
131073199,508
131083212,500
131093259,503
131103307,510
131113324,505
131123368,501
131133413,508
131143427,509
131153471,505
131163515,503
131173527,509
131183572,510
131193613,506
131203626,506
131213669,507
131223713,502
131233757,511
131243771,506
131253819,511
131263868,509
131273884,503
131283927,509
131293972,500
131303986,505
131314033,506
131324077,510
131334090,501
131344134,504
131354178,504
131364192,510
131374236,508
131384280,502
131394294,506
131404338,509
131414382,510
131424396,507
131434441,510
131444486,504
131454496,505
131464542,505
131474585,503
131484632,508
131494647,501
131504692,504
131514736,506
131524754,508
131534802,506
131544851,510
131554870,514
131564919,513
131574967,515
131584987,521
131595036,521
131605083,519
131615102,523
131625149,521
131635196,519
131645212,528
131655257,524
131665302,523
131675318,516
131685367,520
131695412,512
131705429,516
131715475,513
131725520,507
131735568,505
131745583,513
131755628,507
131765674,508
131775689,503
131785734,508
131795782,508
131805799,510
131815847,505
131825896,507
131835915,506
131845960,503
131856005,505
131866016,509
131876054,512
131886093,509
131896105,511
131906145,504
131916181,506
131926188,510
131936227,509
131946267,508
131956277,506
131966316,503
131976353,507
131986392,507
131996400,506
132006439,504
132016476,507
132026487,505
132036533,505
132046577,504
132056586,505
132066626,510
132076669,504
132086677,507
132096713,511
132106745,507
132116747,508
132126779,508
132136816,506
132146820,510
132156853,507
132166891,508
132176898,509
132186938,503
132196978,505
132206987,511
132217026,507
132227066,504
132237107,509
132247118,508
132257158,507
132267199,505
132277207,512
132287245,514
132297281,517
132307289,519
132317326,523
132327366,525
132337372,519
132347407,522
132357440,528
132367444,527
132377479,526
132387516,521
132397523,520
132407556,518
132417590,513
132427596,512
132437634,513
132447674,507
132457680,508
132467717,511
132477754,511
132487790,508
132497793,509
132507827,503
132517864,503
132527872,508
132537908,508
132547944,507
132557952,504
132567991,508
132578029,507
132588033,507
132598070,507
132608109,511
132618112,509
132628149,502
132638185,508
132648191,505
132658230,510
132668267,505
132678274,510
132688316,503
132698355,510
132708364,512
132718403,504
132728438,509
132738473,508
132748482,512
132758521,511
132768560,505
132778567,502
132788601,506
132798635,506
132808639,509
132818672,510
132828709,506
132838715,504
132848752,505
132858787,504
132868791,509
132878825,504
132888858,501
132898867,508
132908906,505
132918943,504
132928949,506
132938984,503
132949022,507
132959028,505
132969066,508
132979105,506
132989145,509
132999154,515
133009193,511
133019234,517
133029246,524
133039288,523
133049331,527
133059343,519
133069388,520
133079435,525
133089450,521
133099496,513
133109537,515
133119551,517
133129597,512
133139641,507
133149657,508
133159700,508
133169738,503
133179752,510
133189794,503
133199834,504
133209843,502
133219888,507
133229933,509
133239977,510
133249988,509
133260033,507
133270078,508
133280090,510
133290135,505
133300178,513
133310190,513
133320232,512
133330274,508
133340283,510
133350326,511
133360369,512
133370381,512
133380425,501
133390469,509
133400482,506
133410523,512
133420562,504
133430573,508
133440616,507
133450660,501
133460678,503
133470727,507
133480773,511
133490817,510
133500829,511
133510875,508
133520918,508
133530931,506
133540975,503
133551021,501
133561037,502
133571082,503
133581124,510
133591137,507
133601177,500
133611217,501
133621228,508
133631271,507
133641312,509
133651324,511
133661364,514
133671405,513
133681417,512
133691461,517
133701505,525
133711516,522
133721556,526
133731596,519
133741636,523
133751644,518
133761684,522
133771727,518
133781736,517
133791777,515
133801819,506
133811829,512
133821872,511
133831919,511
133841932,510
133851974,503
133862013,511
133872025,509
133882067,506
133892109,500
133902121,502
133912161,502
133922203,510
133932211,505
133942251,503
133952289,513
133962296,510
133972331,514
133982367,512
133992404,514
134002408,508
134012443,503
134022479,510
134032483,508
134042521,509
134052560,508
134062572,509
134072612,507
134082653,507
134092662,507
134102700,505
134112746,508
134122759,506
134132800,508
134142841,505
134152851,509
134162891,505
134172932,505
134182942,508
134192981,506
134203021,506
134213030,503
134223071,511
134233112,509
134243153,511
134253165,506
134263206,509
134273248,509
134283260,511
134293302,506
134303344,509
134313356,510
134323396,503
134333436,507
134343448,506
134353490,514
134363530,509
134373540,518
134383580,514
134393620,521
134403629,524
134413669,524
134423711,527
134433721,526
134443759,519
134453799,523
134463811,517
134473854,512
134483898,513
134493938,512
134503949,505
134513993,505
134524033,506
134534048,501
134544088,510
134554128,508
134564141,503
134574185,510
134584228,505
134594239,500
134604279,501
134614318,509
134624327,508
134634368,506
134644411,508
134654421,509
134664465,512
134674507,507
134684521,512
134694565,509
134704605,511
134714613,504
134724655,503
134734699,503
134744741,508
134754754,504
134764792,509
134774826,510
134784834,502
134794872,505
134804910,506
134814920,510
134824956,503
134834997,505
134845006,505
134855046,508
134865091,505
134875101,505
134885142,507
134895184,501
134905196,502
134915235,503
134925276,507
134935286,508
134945328,509
134955368,509
134965378,503
134975419,503
134985460,504
134995498,505
135005510,508
135015553,501
135025599,508
135035612,508
135045655,508
135055696,504
135065707,510
135075747,510
135085789,508
135095800,508
135105838,509
135115881,512
135125892,510
135135933,512
135145976,522
135155988,521
135166028,527
135176068,528
135186079,519
135196121,524
135206161,525
135216172,522
135226213,524
135236252,515
135246292,511
135256302,513
135266345,513
135276385,513
135286393,508
135296435,506
135306474,507
135316483,506
135326528,508
135336572,506
135346586,508
135356633,507
135366679,506
135376697,499
135386740,502
135396781,508
135406790,509
135416833,512
135426874,508
135436883,502
135446923,511
135456965,502
135466976,509
135477019,510
135487063,505
135497106,510
135507119,507
135517160,510
135527200,509
135537212,509
135547255,506
135557300,510
135567312,503
135577355,501
135587396,501
135597405,507
135607445,501
135617483,505
135627491,504
135637532,506
135647569,507
135657579,507
135667618,512
135677656,499
135687664,508
135697700,508
135707739,506
135717748,503
135727789,507
135737831,501
135747872,505
135757882,504
135767925,506
135777965,504
135787968,503
135798007,507
135808047,503
135818056,509
135828094,508
135838131,507
135848139,508
135858178,509
135868217,510
135878228,511
135888269,515
135898307,516
135908317,518
135918359,517
135928400,526
135938407,524
135948441,521
135958483,524
135968496,521
135978536,520
135988574,521
135998614,513
136008623,515
136018661,513
136028699,511
136038706,503
136048744,505
136058782,503
136068788,503
136078826,508
136088865,507
136098872,499
136108912,502
136118951,505
136128959,503
136139001,507
136149044,509
136159052,505
136169091,504
136179130,506
136189140,502
136199181,508
136209219,502
136219228,511
136229264,509
136239301,511
136249337,508
136259343,511
136269384,510
136279428,500
136289443,506
136299488,510
136309533,500
136319548,501
136329593,503
136339638,505
136349652,505
136359693,502
136369729,506
136379735,505
136389771,507
136399807,510
136409811,507
136419846,510
136429881,510
136439888,504
136449923,501
136459958,507
136469962,509
136479995,508
136490032,504
136500068,501
136510073,504
136520110,505
136530146,501
136540152,504
136550189,505
136560227,507
136570238,508
136580277,510
136590315,505
136600324,506
136610363,506
136620399,507
136630401,508
136640434,505
136650472,507
136660475,510
136670517,508
136680560,508
136690566,510
136700603,517
136710643,521
136720653,516
136730692,529
136740731,527
136750771,526
136760781,520
136770821,524
136780863,518
136790873,524
136800913,520
136810950,519
136820956,515
136830993,513
136841029,512
136851032,512
136861069,512
136871110,509
136881123,505
136891161,502
136901196,501
136911200,505
136921234,502
136931271,505
136941277,504
136951312,503
136961348,503
136971356,501
136981394,505
136991431,505
137001469,506
137011480,504
137021517,508
137031554,505
137041560,507
137051596,504
137061634,506
137071644,510
137081685,504
137091728,507
137101742,497
137111789,504
137121835,506
137131848,509
137141891,506
137151933,505
137161941,511
137171981,507
137182020,510
137192030,507
137202068,511
137212103,510
137222105,507
137232143,512
137242182,513
137252221,508
137262228,504
137272270,509
137282312,511
137292323,509
137302363,509
137312403,506
137322408,509
137332446,508
137342486,508
137352495,505
137362533,506
137372572,503
137382583,505
137392623,510
137402662,505
137412672,505
137422714,508
137432754,501
137442764,506
137452803,504
137462843,511
137472853,501
137482894,500
137492933,508
137502971,510
137512976,508
137523009,513
137533045,514
137543052,520
137553092,515
137563131,528
137573141,527
137583179,526
137593220,528
137603230,525
137613268,526
137623306,522
137633315,519
137643356,512
137653396,518
137663405,508
137673441,513
137683479,512
137693485,506
137703522,505
137713558,509
137723563,506
137733601,506
137743640,506
137753681,508
137763689,511
137773726,508
137783764,511
137793772,506
137803808,504
137813848,513
137823856,507
137833895,511
137843933,510
137853941,513
137863981,509
137874023,508
137884034,506
137894074,511
137904116,512
137914127,508
137924167,508
137934207,506
137944215,510
137954253,507
137964292,506
137974302,506
137984340,509
137994377,506
138004417,511
138014428,508
138024467,510
138034508,508
138044522,507
138054562,508
138064604,509
138074614,507
138084655,511
138094698,508
138104709,508
138114750,508
138124794,511
138134806,502
138144850,510
138154894,502
138164909,509
138174954,502
138185000,505
138195014,506
138205058,510
138215099,509
138225112,505
138235159,507
138245203,506
138255248,509
138265267,506
138275311,504
138285359,509
138295376,508
138305423,512
138315466,511
138325480,522
138335526,516
138345573,518
138355588,521
138365637,529
138375683,524
138385696,525
138395740,522
138405783,522
138415798,519
138425842,518
138435884,516
138445897,514
138455940,510
138465983,513
138475996,507
138486036,505
138496078,509
138506119,508
138516128,501
138526174,500
138536222,508
138546237,507
138556281,502
138566324,508
138576339,503
138586381,508
138596423,508
138606433,510
138616478,509
138626524,510
138636537,510
138646575,511
138656618,508
138666633,510
138676678,510
138686721,502
138696736,508
138706782,502
138716827,505
138726840,509
138736882,507
138746927,501
138756969,502
138766980,503
138777021,507
138787064,506
138797077,508
138807118,507
138817159,510
138827166,507
138837206,507
138847248,507
138857257,503
138867298,507
138877341,504
138887352,502
138897394,506
138907439,506
138917451,503
138927493,510
138937535,511
138947551,506
138957596,505
138967639,507
138977653,505
138987694,502
138997740,507
139007786,502
139017802,512
139027847,513
139037892,516
139047908,518
139057951,517
139067993,517
139078008,525
139088052,526
139098092,525
139108105,528
139118148,529
139128193,519
139138204,515
139148245,517
139158286,515
139168300,515
139178341,513
139188385,514
139198399,510
139208449,507
139218496,509
139228517,506
139238563,502
139248607,507
139258650,507
139268665,508
139278710,507
139288750,501
139298765,503
139308810,503
139318857,505
139328871,506
139338915,508
139348960,510
139358975,508
139369018,503
139379062,506
139389077,506
139399123,506
139409170,508
139419183,505
139429226,511
139439274,507
139449290,510
139459336,506
139469379,507
139479394,502
139489438,507
139499483,502
139509526,509
139519539,507
139529586,505
139539630,503
139549645,505
139559691,502
139569738,510
139579755,506
139589801,505
139599846,508
139609861,507
139619903,505
139629950,508
139639967,508
139650013,505
139660057,507
139670072,510
139680116,500
139690160,509
139700173,510
139710217,508
139720261,503
139730275,508
139740321,509
139750362,507
139760408,512
139770421,515
139780467,516
139790512,518
139800527,516
139810569,526
139820613,521
139830625,519
139840670,523
139850711,523
139860717,521
139870758,520
139880801,513
139890813,514
139900854,510
139910896,509
139920909,512
139930953,509
139940999,510
139951019,505
139961067,505
139971114,507
139981132,509
139991178,504
140001224,507
140011270,508
140021286,507
140031332,505
140041378,509
140051393,501
140061437,511
140071480,508
140081492,508
140091533,511
140101574,510
140111586,504
140121628,510
140131671,506
140141683,506
140151726,510
140161768,502
140171779,509
140181823,505
140191865,500
140201874,502
140211916,506
140221956,507
140231968,505
140242011,505
140252053,506
140262090,507
140272100,505
140282143,505
140292182,507
140302189,505
140312228,503
140322266,504
140332277,506
140342321,508
140352364,502
140362371,499
140372414,505
140382456,503
140392467,505
140402508,501
140412550,500
140422563,508
140432611,508
140442657,505
140452672,505
140462720,507
140472763,503
140482774,509
140492818,508
140502861,506
140512906,509
140522918,513
140532964,510
140543011,520
140553026,520
140563071,528
140573116,527
140583131,520
140593177,524
140603219,524
140613228,522
140623270,517
140633314,522
140643326,523
140653368,510
140663409,513
140673422,515
140683463,511
140693507,505
140703517,508
140713558,508
140723603,503
140733618,504
140743665,509
140753712,508
140763759,499
140773773,502
140783819,506
140793863,505
140803875,500
140813920,504
140823966,507
140833981,507
140844027,504
140854073,510
140864090,508
140874135,506
140884178,509
140894192,507
140904240,507
140914288,510
140924305,505
140934353,511
140944398,505
140954411,500
140964455,505
140974498,504
140984510,505
140994556,508
141004598,505
141014640,509
141024656,507
141034703,508
141044752,506
141054771,504
141064814,506
141074857,507
141084873,506
141094921,506
141104963,508
141114977,498
141125021,505
141135066,508
141145079,503
141155121,508
141165162,508
141175171,501
141185210,508
141195249,503
141205260,505
141215301,508
141225340,510
141235344,509
141245382,504
141255420,505
141265460,504
141275476,506
141285524,506
141295572,505
141305590,508
141315637,507
141325683,507
141335698,508
141345743,508
141355779,506
141365781,510
141375812,520
141385842,519
141395842,515
141405878,518
141415917,527
141425927,519
141435970,524
141446012,524
141456022,522
141466060,522
141476098,512
141486109,514
141496149,513
141506188,512
141516227,504
141526235,502
141536277,506
141546321,499
141556332,504
141566373,502
141576417,506
141586430,501
141596470,501
141606509,501
141616521,508
141626566,502
141636607,509
141646622,504
141656662,504
141666703,506
141676715,509
141686759,510
141696802,510
141706816,511
141716862,510
141726900,509
141736911,502
141746953,504
141756994,508
141767038,501
141777048,504
141787089,501
141797130,506
141807141,503
141817184,503
141827228,503
141837240,503
141847282,502
141857323,507
141867334,502
141877372,510
141887412,509
141897424,506
141907468,509
141917512,508
141927524,510
141937565,510
141947607,509
141957617,510
141967660,511
141977701,508
141987712,506
141997751,509
142007793,508
142017839,506
142027854,508
142037899,508
142047945,500
142057958,508
142068003,504
142078049,505
142088066,504
142098109,503
142108149,509
142118161,510
142128205,513
142138251,515
142148268,520
142158315,517
142168361,521
142178376,522
142188420,525
142198461,523
142208471,525
142218513,522
142228561,512
142238573,518
142248619,512
142258667,513
142268713,504
142278727,501
142288769,507
142298812,503
142308825,504
142318867,500
142328909,507
142338923,505
142348968,509
142359010,507
142369025,504
142379070,500
142389114,505
142399126,507
142409171,507
142419215,507
142429226,505
142439270,504
142449312,505
142459323,506
142469363,507
142479408,510
142489420,509
142499461,504
142509502,509
142519542,508
142529554,505
142539599,509
142549642,503
142559654,506
142569696,505
142579738,503
142589747,500
142599788,505
142609827,507
142619835,506
142629876,510
142639913,508
142649922,507
142659962,509
142670000,506
142680009,501
142690050,502
142700089,505
142710095,508
142720131,504
142730169,509
142740178,504
142750216,511
142760253,508
142770285,507
142780291,510
142790333,510
142800374,507
142810387,504
142820427,505
142830467,503
142840478,508
142850516,507
142860556,504
142870564,500
142880606,504
142890648,508
142900661,509
142910702,507
142920741,512
142930752,517
142940797,518
142950837,516
142960846,518
142970883,521
142980922,530
142990931,522
143000968,519
143011006,519
143021043,524
143031055,518
143041099,520
143051144,513
143061156,511
143071196,513
143081240,514
143091252,504
143101293,509
143111338,505
143121353,511
143131397,510
143141441,506
143151454,503
143161499,507
143171542,507
143181559,501
143191608,508
143201654,511
143211672,502
143221716,509
143231759,511
143241770,511
143251810,507
143261852,508
143271896,511
143281912,505
143291953,505
143301997,509
143312010,511
143322054,509
143332101,509
143342114,506
143352153,509
143362195,510
143372203,510
143382241,509
143392280,501
143402294,509
143412338,505
143422380,505
143432391,508
143442432,506
143452470,506
143462480,509
143472519,503
143482560,502
143492567,508
143502608,505
143512647,512
143522688,509
143532698,509
143542736,510
143552772,507
143562777,509
143572812,505
143582849,505
143592858,511
143602901,501
143612944,507
143622953,508
143632995,500
143643033,507
143653043,504
143663081,506
143673117,510
143683121,505
143693155,508
143703189,507
143713192,507
143723227,510
143733264,513
143743270,518
143753308,520
143763346,523
143773385,526
143783394,525
143793435,522
143803477,524
143813486,516
143823525,521
143833567,516
143843577,517
143853618,511
143863658,514
143873668,511
143883706,508
143893747,504
143903757,507
143913794,501
143923830,507
143933838,507
143943877,507
143953916,508
143963925,503
143973964,509
143984003,511
143994009,511
144004045,509
144014080,509
144024117,510
144034124,511
144044162,514
144054201,513
144064210,511
144074249,507
144084288,506
144094293,504
144104325,511
144114360,502
144124367,503
144134406,503
144144444,506
144154452,506
144164491,500
144174530,506
144184538,504
144194578,506
144204614,506
144214619,508
144224660,507
144234701,511
144244707,508
144254743,510
144264781,507
144274817,510
144284827,505
144294866,508
144304905,501
144314912,509
144324950,504
144334984,506
144344986,508
144355021,506
144365055,501
144375064,510
144385103,509
144395142,508
144405150,510
144415193,508
144425232,509
144435240,511
144445280,508
144455320,508
144465329,506
144475367,511
144485407,510
144495414,508
144505454,505
144515496,503
144525537,509
144535542,514
144545578,510
144555613,519
144565616,518
144575649,517
144585684,528
144595688,527
144605726,531
144615763,526
144625773,527
144635813,525
144645852,523
144655862,513
144665902,519
144675944,517
144685952,507
144695993,512
144706035,507
144716048,497
144726089,515
144736125,507
144746130,504
144756168,503
144766203,507
144776240,501
144786248,504
144796285,505
144806321,508
144816325,504
144826358,507
144836394,509
144846401,504
144856435,509
144866472,511
144876477,503
144886513,505
144896550,509
144906556,508
144916593,511
144926630,508
144936635,509
144946672,511
144956706,510
144966711,511
144976745,501
144986784,506
144996793,504
145006830,510
145016871,508
145026912,507
145036914,512
145046951,505
145056986,509
145066992,506
145077029,507
145087064,511
145097067,509
145107104,505
145117138,509
145127143,510
145137174,506
145147205,509
145157206,510
145167237,511
145177267,511
145187267,509
145197299,505
145207331,505
145217331,505
145227363,495
145237396,500
145247399,509
145257431,502
145267463,506
145277499,500
145287502,502
145297536,502
145307574,499
145317577,507
145327612,503
145337649,510
145347653,511
145357686,512
145367719,513
145377724,512
145387756,520
145397793,526
145407801,524
145417837,529
145427874,530
145437878,528
145447916,524
145457953,526
145467959,522
145477994,522
145488031,514
145498038,513
145508077,516
145518119,514
145528161,511
145538171,511
145548214,512
145558253,511
145568263,507
145578297,505
145588330,510
145598335,500
145608371,510
145618415,507
145628423,506
145638463,509
145648505,501
145658514,510
145668554,511
145678594,510
145688602,506
145698641,504
145708681,509
145718687,507
145728725,512
145738760,502
145748766,505
145758804,503
145768841,510
145778876,510
145788883,502
145798920,505
145808957,506
145818962,501
145829002,509
145839042,504
145849052,506
145859091,511
145869131,511
145879138,510
145889177,510
145899217,507
145909228,511
145919269,508
145929309,510
145939320,505
145949361,506
145959405,502
145969414,512
145979453,506
145989491,502
145999500,508
146009542,511
146019581,511
146029620,502
146039629,505
146049670,507
146059709,508
146069719,510
146079762,508
146089805,508
146099814,507
146109854,507
146119895,501
146129901,506
146139940,502
146149979,508
146159987,506
146170026,508
146180063,509
146190072,506
146200110,500
146210147,511
146220155,518
146230193,516
146240231,520
146250236,524
146260271,526
146270307,527
146280344,528
146290352,530
146300391,527
146310429,523
146320439,519
146330480,522
146340520,518
146350530,510
146360570,517
146370607,512
146380614,512
146390652,508
146400691,512
146410698,511
146420734,504
146430771,509
146440775,502
146450809,505
146460845,509
146470852,507
146480891,513
146490929,508
146500937,504
146510973,510
146521012,505
146531050,511
146541059,509
146551099,507
146561141,510
146571152,512
146581194,508
146591236,503
146601246,509
146611282,507
146621319,509
146631328,508
146641368,506
146651406,509
146661411,504
146671451,507
146681491,506
146691499,503
146701541,508
146711583,507
146721590,503
146731629,512
146741668,510
146751677,512
146761719,505
146771761,503
146781802,510
146791811,509
146801850,511
146811889,510
146821899,513
146831939,512
146841977,507
146851986,506
146862025,510
146872063,509
146882071,509
146892112,508
146902152,511
146912163,509
146922201,504
146932243,506
146942252,508
146952294,507
146962333,505
146972343,501
146982382,501
146992422,500
147002432,507
147012472,506
147022511,507
147032550,498
147042557,503
147052599,505
147062638,504
147072647,507
147082684,513
147092722,516
147102729,520
147112767,523
147122806,520
147132815,519
147142851,527
147152886,530
147162893,523
147172930,517
147182971,521
147192976,518
147203010,514
147213043,512
147223050,512
147233084,513
147243121,509
147253126,506
147263163,510
147273198,507
147283235,509
147293243,506
147303280,506
147313319,510
147323326,510
147333368,511
147343411,509
147353423,510
147363465,510
147373506,513
147383516,505
147393559,510
147403602,508
147413613,513
147423654,513
147433695,508
147443707,503
147453748,510
147463789,511
147473801,505
147483842,510
147493882,506
147503894,502
147513938,504
147523980,507
147534025,504
147544039,503
147554081,508
147564125,506
147574140,507
147584182,501
147594226,509
147604239,510
147614282,505
147624325,510
147634339,509
147644382,508
147654427,508
147664439,505
147674484,511
147684526,510
147694537,508
147704580,508
147714625,507
147724632,507
147734670,507
147744711,506
147754723,507
147764763,505
147774807,508
147784854,502
147794866,506
147804910,509
147814953,511
147824968,504
147835012,513
147845054,510
147855063,507
147865107,510
147875152,506
147885165,505
147895211,508
147905255,510
147915272,513
147925316,510
147935355,517
147945364,520
147955403,519
147965442,525
147975451,525
147985492,524
147995532,523
148005540,524
148015578,516
148025617,509
148035660,511
148045672,512
148055717,513
148065756,510
148075770,509
148085812,503
148095853,504
148105866,506
148115906,505
148125946,503
148135955,500
148145999,503
148156037,499
148166046,508
148176086,509
148186124,507
148196135,508
148206173,505
148216210,512
148226219,510
148236262,510
148246304,510
148256317,512
148266357,508
148276398,510
148286442,508
148296455,504
148306498,503
148316541,505
148326553,505
148336597,504
148346637,503
148356645,508
148366684,498
148376726,504
148386740,506
148396786,510
148406825,508
148416835,505
148426877,508
148436917,506
148446930,507
148456974,508
148467020,505
148477035,510
148487078,502
148497123,508
148507140,511
148517183,503
148527233,508
148537286,504
148547307,508
148557359,508
148567411,510
148577424,507
148587468,507
148597513,509
148607524,504
148617569,509
148627614,511
148637621,505
148647662,491
148657705,508
148667719,511
148677758,516
148687801,518
148697813,519
148707852,519
148717887,523
148727895,522
148737937,527
148747977,521
148757989,521
148768032,518
148778084,521
148788130,521
148798141,520
148808182,516
148818227,514
148828243,516
148838289,513
148848333,509
148858348,508
148868392,505
148878435,509
148888445,506
148898488,501
148908531,510
148918544,505
148928588,500
148938632,509
148948645,506
148958689,509
148968736,503
148978751,510
148988795,506
148998839,510
149008854,509
149018896,509
149028941,504
149038984,509
149048999,505
149059046,505
149069090,504
149079106,505
149089150,510
149099195,507
149109209,507
149119255,508
149129296,507
149139306,501
149149350,505
149159395,506
149169409,506
149179451,505
149189494,508
149199505,504
149209548,506
149219590,502
149229603,505
149239652,509
149249695,511
149259706,501
149269749,510
149279790,507
149289833,511
149299845,508
149309884,506
149319927,509
149329940,501
149339984,504
149350028,506
149360039,510
149370081,511
149380124,510
149390135,505
149400178,511
149410224,505
149420236,501
149430279,508
149440320,508
149450329,509
149460370,510
149470412,516
149480420,522
149490462,520
149500502,521
149510507,519
149520544,525
149530585,520
149540626,522
149550634,524
149560677,516
149570719,519
149580731,516
149590776,516
149600820,514
149610835,511
149620880,512
149630923,509
149640935,503
149650976,506
149661016,508
149671027,500
149681073,509
149691117,507
149701133,509
149711174,506
149721216,511
149731230,509
149741274,511
149751318,506
149761331,506
149771373,512
149781417,509
149791461,513
149801473,508
149811515,506
149821558,505
149831571,507
149841616,508
149851657,508
149861668,508
149871709,504
149881753,512
149891765,505
149901812,506
149911857,507
149921872,512
149931920,507
149941965,512
149951975,503
149962019,508
149972062,507
149982077,507
149992122,512
150002167,513
150012182,504
150022229,506
150032276,511
150042324,507
150052341,508
150062386,501
150072427,508
150082438,506
150092480,506
150102519,499
150112533,506
150122579,508
150132624,508
150142642,509
150152691,502
150162738,505
150172753,508
150182800,510
150192846,511
150202860,517
150212908,518
150222953,522
150232969,524
150243012,519
150253056,522
150263068,524
150273111,529
150283157,525
150293201,521
150303216,517
150313262,517
150323311,521
150333328,518
150343372,512
150353414,512
150363427,515
150373471,513
150383510,512
150393524,509
150403565,507
150413605,504
150423614,501
150433652,507
150443698,502
150453713,509
150463760,509
150473810,507
150483828,505
150493879,505
150503927,510
150513943,510
150523988,509
150534037,503
150544088,505
150554108,510
150564155,501
150574205,511
150584227,510
150594280,503
150604329,504
150614345,509
150624388,510
150634429,507
150644438,505
150654476,508
150664515,508
150674525,508
150684565,509
150694607,511
150704620,507
150714662,509
150724703,509
150734715,507
150744757,513
150754801,507
150764813,513
150774858,508
150784902,511
150794944,510
150804954,512
150814995,506
150825037,505
150835045,507
150845084,507
150855123,505
150865133,507
150875173,507
150885213,504
150895222,508
150905263,507
150915305,504
150925317,508
150935361,503
150945403,506
150955415,510
150965454,509
150975496,509
150985507,512
150995548,518
151005600,524
151015623,528
151025677,527
151035729,530
151045776,525
151055789,519
151065832,521
151075877,518
151085894,519
151095943,518
151105991,511
151116006,506
151126052,510
151136100,509
151146115,508
151156160,508
151166205,503
151176218,507
151186261,506
151196303,508
151206316,506
151216361,507
151226405,505
151236420,508
151246463,507
151256509,507
151266520,503
151276559,507
151286600,510
151296644,509
151306658,509
151316701,509
151326746,510
151336758,511
151346802,505
151356842,510
151366852,509
151376896,509
151386940,505
151396952,510
151406996,508
151417040,508
151427055,509
151437098,509
151447141,507
151457152,503
151467193,511
151477235,509
151487242,510
151497283,507
151507327,512
151517339,504
151527381,503
151537427,504
151547477,510
151557498,507
151567547,506
151577593,507
151587606,509
151597649,506
151607690,509
151617700,506
151627740,509
151637781,510
151647793,506
151657835,508
151667876,510
151677887,509
151687929,510
151697970,505
151707982,510
151718027,501
151728069,500
151738081,507
151748121,509
151758160,505
151768170,508
151778211,511
151788252,509
151798291,513
151808297,520
151818336,521
151828378,519
151838392,524
151848438,526
151858484,525
151868496,525
151878537,521
151888578,518
151898589,520
151908628,509
151918665,516
151928675,514
151938717,513
151948752,510
151958760,503
151968800,502
151978841,508
151988855,503
151998896,504
152008940,499
152018952,505
152028990,504
152039033,506
152049075,507
152059086,507
152069128,507
152079171,510
152089181,509
152099220,509
152109260,512
152119270,509
152129311,505
152139351,512
152149363,509
152159407,501
152169450,505
152179457,511
152189496,508
152199534,506
152209541,505
152219583,504
152229624,506
152239635,508
152249677,506
152259719,504
152269728,504
152279768,502
152289807,505
152299848,504
152309867,508
152319915,500
152329964,506
152339987,503
152350036,510
152360088,505
152370106,504
152380155,510
152390206,508
152400225,509
152410277,508
152420330,507
152430353,506
152440403,506
152450447,510
152460463,507
152470508,503
152480554,507
152490568,508
152500614,505
152510660,503
152520674,506
152530716,509
152540756,505
152550798,514
152560811,517
152570854,517
152580898,522
152590913,518
152600956,529
152610998,529
152621007,529
152631051,526
152641093,529
152651103,522
152661139,522
152671181,519
152681194,516
152691234,516
152701276,514
152711288,507
152721329,511
152731371,511
152741383,509
152751427,509
152761469,507
152771483,505
152781526,505
152791567,506
152801605,501
152811614,509
152821655,503
152831696,507
152841706,502
152851745,505
152861783,505
152871793,508
152881834,501
152891877,508
152901886,505
152911925,506
152921965,501
152931979,508
152942023,509
152952066,502
152962081,507
152972122,503
152982164,504
152992174,507
153002214,507
153012256,505
153022264,504
153032301,509
153042342,506
153052382,503
153062390,508
153072429,508
153082467,503
153092476,505
153102515,510
153112550,503
153122555,505
153132592,507
153142629,504
153152636,500
153162673,501
153172711,501
153182719,507
153192758,510
153202802,504
153212814,509
153222856,510
153232898,507
153242910,508
153252952,505
153262992,508
153273003,502
153283046,507
153293088,502
153303128,508
153313136,507
153323175,503
153333214,502
153343226,508
153353268,509
153363312,510
153373328,513
153383367,520
153393405,518
153403415,520
153413454,523
153423496,528
153433511,525
153443555,518
153453600,520
153463613,522
153473660,519
153483703,512
153493715,509
153503756,512
153513797,506
153523808,503
153533850,504
153543890,504
153553931,508
153563946,505
153573989,504
153584030,499
153594044,505
153604082,506
153614124,506
153624142,504
153634192,503
153644238,498
153654246,498
153664288,505
153674328,510
153684337,501
153694378,509
153704420,510
153714430,503
153724470,509
153734508,507
153744515,504
153754550,506
153764591,505
153774602,501
153784643,506
153794685,510
153804732,506
153814749,509
153824798,507
153834845,509
153844857,503
153854896,507
153864936,499
153874943,500
153884984,505
153895021,504
153905031,503
153915070,501
153925112,506
153935123,506
153945163,503
153955204,503
153965214,504
153975250,508
153985287,504
153995296,503
154005333,511
154015373,501
154025383,501
154035424,500
154045461,503
154055498,502
154065505,508
154075544,508
154085584,508
154095594,509
154105634,510
154115674,507
154125683,501
154135721,499
154145759,509
154155770,509
154165810,506
154175854,507
154185866,514
154195907,512
154205947,512
154215955,520
154225993,515
154236031,524
154246041,525
154256087,527
154266133,520
154276149,518
154286192,520
154296235,517
154306278,516
154316286,512
154326325,515
154336365,512
154346373,507
154356410,508
154366447,513
154376453,509
154386495,504
154396534,507
154406543,506
154416583,505
154426619,506
154436624,508
154446664,507
154456701,510
154466710,507
154476747,504
154486787,509
154496796,506
154506836,503
154516875,509
154526881,511
154536918,504
154546957,509
154556994,504
154567003,509
154577043,506
154587082,505
154597090,502
154607126,511
154617165,509
154627171,506
154637210,510
154647248,511
154657255,507
154667293,510
154677331,511
154687342,506
154697383,505
154707423,510
154717431,504
154727470,510
154737508,506
154747518,510
154757559,511
154767599,508
154777611,502
154787653,505
154797694,507
154807736,505
154817750,504
154827796,509
154837843,508
154847856,507
154857897,506
154867939,506
154877946,512
154887984,507
154898022,511
154908028,509
154918064,505
154928103,510
154938108,506
154948147,509
154958183,509
154968189,509
154978226,505
154988270,508
154998285,507
155008331,501
155018378,504
155028387,509
155038424,511
155048458,509
155058494,513
155068501,513
155078539,518
155088576,520
155098577,521
155108611,524
155118647,527
155128652,522
155138688,525
155148727,520
155158736,518
155168779,519
155178824,512
155188838,512
155198885,515
155208930,515
155218944,512
155228988,505
155239033,512
155249047,510
155259089,513
155269133,510
155279142,507
155289181,505
155299223,503
155309260,509
155319267,506
155329306,508
155339346,508
155349355,510
155359392,507
155369430,503
155379437,507
155389474,505
155399509,505
155409516,509
155419554,507
155429591,503
155439599,506
155449637,502
155459677,508
155469686,506
155479725,510
155489763,509
155499768,510
155509806,506
155519844,508
155529855,508
155539894,502
155549936,508
155559972,508
155569981,501
155580020,504
155590061,512
155600073,506
155610115,505
155620156,505
155630165,508
155640205,508
155650245,502
155660257,505
155670297,501
155680334,511
155690340,507
155700380,511
155710421,508
155720429,511
155730466,508
155740501,511
155750507,508
155760548,507
155770587,507
155780596,510
155790634,508
155800676,502
155810718,504
155820725,508
155830766,510
155840805,509
155850811,508
155860848,505
155870885,512
155880893,510
155890932,508
155900972,513
155910978,515
155921016,521
155931056,523
155941065,528
155951106,526
155961146,528
155971156,522
155981196,525
155991236,521
156001244,523
156011279,514
156021320,518
156031330,515
156041372,514
156051413,513
156061451,510
156071463,513
156081506,505
156091545,512
156101555,512
156111596,506
156121639,507
156131650,505
156141694,510
156151736,506
156161749,507
156171792,510
156181832,504
156191841,506
156201881,507
156211920,514
156221928,508
156231970,512
156242010,512
156252018,507
156262058,512
156272099,509
156282109,510
156292149,509
156302190,509
156312231,502
156322239,507
156332275,502
156342314,509
156352322,503
156362359,504
156372396,510
156382405,508
156392445,506
156402487,503
156412499,510
156422542,508
156432585,508
156442596,508
156452635,506
156462677,511
156472688,508
156482728,511
156492765,504
156502775,506
156512817,508
156522858,505
156532871,502
156542915,511
156552958,511
156563002,506
156573016,510
156583057,506
156593097,509
156603108,510
156613151,506
156623190,510
156633197,503
156643237,509
156653276,511
156663287,511
156673327,506
156683370,510
156693380,511
156703418,516
156713460,519
156723471,515
156733507,523
156743547,523
156753555,525
156763594,534
156773632,532
156783640,533
156793680,527
156803720,527
156813727,521
156823765,524
156833801,517
156843836,514
156853841,511
156863884,508
156873925,515
156883936,514
156893977,506
156904018,512
156914030,508
156924069,511
156934110,508
156944121,508
156954160,507
156964200,504
156974209,503
156984244,509
156994284,507
157004291,510
157014330,503
157024371,511
157034381,509
157044423,508
157054464,511
157064505,505
157074517,509
157084558,509
157094597,511
157104604,509
157114640,510
157124674,509
157134682,508
157144721,511
157154759,501
157164766,507
157174807,510
157184843,501
157194851,507
157204887,504
157214925,501
157224931,508
157234971,508
157245009,504
157255017,506
157265056,504
157275093,505
157285103,503
157295144,500
157305185,510
157315222,501
157325226,508
157335265,504
157345306,507
157355313,507
157365352,503
157375389,508
157385394,504
157395432,505
157405467,508
157415476,505
157425514,507
157435553,509
157445561,511
157455600,510
157465639,510
157475646,507
157485679,510
157495717,508
157505726,509
157515763,510
157525803,507
157535813,502
157545851,509
157555890,509
157565927,518
157575930,513
157585966,515
157596005,521
157606013,526
157616053,530
157626095,527
157636102,524
157646140,522
157656179,528
157666188,525
157676227,525
157686261,519
157696266,516
157706305,510
157716345,515
157726356,510
157736398,512
157746439,507
157756451,505
157766496,507
157776537,508
157786548,508
157796592,505
157806634,498
157816675,499
157826686,502
157836728,500
157846768,503
157856777,498
157866819,506
157876862,508
157886872,507
157896913,509
157906952,506
157916964,505
157927002,504
157937043,509
157947054,500
157957093,504
157967132,506
157977141,505
157987178,505
157997216,510
158007223,508
158017260,504
158027298,507
158037305,510
158047339,506
158057379,510
158067419,500
158077427,510
158087465,508
158097502,511
158107510,502
158117546,512
158127581,508
158137584,511
158147625,513
158157666,510
158167678,506
158177722,507
158187768,504
158197777,505
158207819,508
158217861,504
158227873,511
158237914,504
158247955,508
158257965,500
158268004,508
158278042,501
158288047,509
158298086,502
158308124,503
158318164,505
158328173,508
158338213,508
158348254,509
158358264,505
158368303,510
158378341,510
158388353,507
158398394,510
158408429,505
158418440,512
158428482,509
158438526,512
158448539,513
158458581,521
158468626,523
158478639,526
158488681,530
158498725,526
158508739,523
158518782,523
158528825,522
158538834,512
158548875,515
158558917,524
158568959,511
158578972,503
158589013,509
158599057,503
158609068,507
158619108,504
158629149,508
158639156,505
158649192,502
158659230,503
158669238,505
158679277,506
158689316,504
158699330,506
158709376,509
158719422,507
158729438,509
158739485,512
158749532,509
158759544,511
158769586,513
158779625,510
158789633,509
158799673,502
158809711,505
158819748,505
158829755,509
158839793,504
158849833,500
158859842,500
158869879,506
158879916,505
158889925,498
158899965,502
158910006,507
158920017,507
158930060,505
158940103,505
158950115,506
158960153,501
158970192,506
158980202,509
158990238,510
159000276,510
159010287,508
159020327,508
159030365,509
159040374,511
159050413,506
159060451,508
159070490,508
159080505,509
159090555,510
159100603,509
159110616,510
159120659,510
159130701,506
159140713,508
159150758,510
159160800,510
159170811,504
159180851,507
159190891,510
159200903,507
159210943,508
159220984,509
159230995,512
159241036,513
159251078,522
159261088,525
159271136,525
159281181,524
159291191,527
159301233,528
159311274,523
159321316,520
159331326,518
159341369,520
159351410,512
159361423,513
159371466,512
159381508,513
159391516,506
159401558,503
159411600,510
159421611,508
159431657,507
159441701,509
159451715,508
159461756,499
159471798,500
159481809,499
159491851,508
159501892,508
159511903,507
159521944,509
159531982,506
159541992,509
159552034,507
159562074,508
159572117,509
159582133,508
159592180,510
159602226,511
159612241,505
159622285,508
159632328,501
159642340,509
159652384,508
159662427,501
159672440,505
159682484,507
159692526,511
159702540,504
159712584,504
159722626,508
159732638,506
159742681,509
159752724,508
159762736,501
159772782,509
159782825,503
159792838,502
159802883,508
159812928,506
159822969,509
159832980,505
159843025,502
159853068,509
159863079,510
159873123,510
159883167,511
159893178,503
159903220,510
159913261,509
159923273,509
159933317,511
159943359,507
159953373,505
159963417,505
159973462,503
159983475,510
159993516,507
160003559,503
160013571,508
160023615,511
160033656,513
160043668,516
160053712,513
160063755,524
160073798,526
160083809,528
160093850,529
160103890,532
160113901,524
160123941,525
160133983,522
160143993,523
160154032,519
160164071,511
160174080,516
160184122,515
160194164,509
160204175,510
160214216,509
160224257,510
160234269,504
160244312,499
160254356,506
160264369,505
160274413,502
160284453,505
160294456,507
160304495,509
160314534,510
160324576,504
160334587,507
160344629,510
160354669,505
160364680,511
160374721,505
160384763,506
160394776,509
160404819,512
160414865,506
160424879,504
160434926,511
160444970,505
160454983,510
160465026,510
160475072,505
160485085,508
160495126,503
160505167,507
160515180,509
160525226,510
160535268,509
160545267,511
160555321,505
160565363,509
160575408,505
160585423,511
160595470,510
160605515,502
160615532,507
160625576,511
160635622,507
160645639,506
160655688,504
160665733,510
160675747,509
160685792,508
160695837,504
160705850,511
160715894,506
160725940,508
160735952,502
160745995,508
160756037,509
160766035,507
160776086,508
160786127,511
160796129,507
160806183,502
160816225,507
160826268,507
160836275,503
160846317,507
160856358,506
160866368,512
160876411,514
160886455,512
160896467,521
160906508,522
160916546,523
160926556,527
160936600,527
160946646,528
160956661,526
160966705,524
160976751,521
160986752,519
160996807,518
161006845,514
161016847,513
161026903,510
161036946,504
161046948,508
161057006,510
161067052,506
161077096,501
161087113,508
161097156,503
161107197,504
161117208,509
161127247,508
161137287,508
161147299,509
161157342,508
161167386,508
161177398,504
161187441,512
161197486,514
161207498,506
161217543,513
161227587,510
161237590,512
161247648,508
161257692,507
161267691,510
161277748,507
161287792,507
161297796,508
161307851,509
161317893,505
161327939,508
161337953,509
161347999,509
161358044,503
161368056,506
161378102,508
161388147,502
161398159,504
161408200,507
161418242,505
161428251,509
161438292,505
161448332,507
161458328,511
161468377,507
161478421,501
161488422,509
161498478,503
161508517,507
161518517,511
161528570,502
161538612,508
161548615,501
161558663,506
161568698,504
161578732,508
161588740,507
161598777,507
161608817,499
161618829,508
161628872,507
161638916,511
161648924,511
161658966,506
161669007,516
161679005,518
161689057,522
161699100,524
161709101,523
161719158,520
161729204,528
161739209,522
161749269,519
161759318,514
161769326,520
161779387,516
161789437,515
161799449,509
161809507,505
161819556,511
161829606,509
161839625,502
161849674,510
161859721,508
161869737,503
161879785,506
161889833,502
161899847,500
161909894,507
161919938,502
161929941,504
161940000,505
161950046,510
161960049,507
161970104,504
161980147,510
161990150,511
162000208,505
162010256,506
162020262,509
162030317,512
162040360,503
162050366,510
162060419,505
162070458,510
162080502,508
162090517,507
162100563,507
162110608,500
162120620,508
162130664,505
162140708,506
162150710,505
162160765,506
162170811,510
162180814,510
162190868,506
162200907,507
162210906,508
162220961,501
162231005,505
162241010,505
162251066,503
162261116,508
162271127,503
162281181,511
162291229,511
162301239,505
162311293,510
162321340,507
162331388,506
162341405,509
162351456,504
162361504,505
162371516,508
162381572,508
162391620,507
162401626,510
162411688,506
162421737,507
162431744,511
162441806,512
162451858,506
162461870,516
162471928,512
162481976,520
162491990,525
162502047,524
162512095,525
162522107,531
162532163,530
162542210,527
162552223,525
162562278,520
162572324,519
162582369,518
162592374,512
162602432,515
162612480,508
162622485,509
162632546,510
162642592,507
162652595,509
162662654,509
162672701,505
162682706,500
162692761,509
162702806,505
162712810,506
162722863,499
162732909,505
162742917,510
162752968,502
162763009,507
162773014,504
162783059,508
162793099,508
162803106,509
162813151,506
162823192,510
162833234,507
162843230,509
162853281,510
162863320,502
162873318,510
162883370,508
162893407,506
162903405,500
162913458,510
162923500,505
162933503,503
162943556,508
162953601,508
162963606,508
162973657,506
162983699,501
162993704,507
163003751,507
163013793,501
163023797,503
163033843,504
163043887,506
163053879,503
163063921,507
163073972,508
163084010,511
163094007,506
163104059,505
163114100,513
163124097,511
163134146,507
163144186,512
163154185,510
163164235,511
163174274,510
163184275,512
163194322,512
163204362,503
163214364,511
163224410,511
163234449,507
163244451,508
163254495,509
163264535,513
163274527,507
163284573,517
163294627,523
163304617,519
163314664,525
163324717,523
163334757,531
163344753,529
163354800,530
163364835,525
163374828,522
163384877,518
163394916,521
163404917,516
163414960,512
163424998,507
163434997,506
163445040,512
163455079,509
163465081,503
163475128,507
163485169,506
163495175,504
163505210,508
163515265,508
163525266,499
163535303,506
163545357,500
163555348,510
163565396,507
163575448,509
163585488,512
163595487,512
163605540,506
163615581,510
163625582,507
163635632,508
163645674,510
163655677,507
163665723,503
163675764,507
163685769,510
163695813,503
163705854,507
163715862,500
163725908,506
163735949,504
163745950,506
163755990,508
163766042,507
163776035,504
163786091,506
163796156,501
163806162,507
163816216,505
163826279,500
163836331,508
163846347,510
163856409,510
163866462,507
163876475,504
163886531,509
163896580,509
163906596,503
163916649,509
163926695,504
163936702,504
163946749,503
163956790,508
163966786,508
163976834,506
163986892,505
163996891,502
164006942,506
164016997,506
164026990,506
164037035,500
164047090,505
164057091,505
164067140,508
164077192,506
164087233,511
164097236,504
164107285,509
164117329,514
164127333,513
164137386,521
164147430,524
164157436,520
164167484,528
164177520,530
164187510,525
164197554,525
164207607,526
164217596,520
164227643,516
164237696,514
164247689,512
164257733,512
164267782,504
164277775,502
164287822,506
164297873,502
164307864,501
164317905,504
164327950,504
164337983,499
164347981,504
164358023,500
164368061,505
164378065,507
164388109,507
164398148,508
164408153,510
164418195,503
164428235,502
164438236,510
164448274,511
164458324,511
164468314,510
164478356,504
164488406,509
164498398,510
164508440,510
164518484,503
164528473,506
164538514,502
164548556,508
164558552,508
164568593,510
164578638,505
164588675,509
