timestamp, ppg
15226221,502
15236425,506
15246436,508
15256478,512
15266526,513
15276539,517
15286576,527
15296618,534
15306660,534
15316672,533
15326711,535
15336750,534
15346761,533
15356800,531
15366840,526
15376849,518
15386891,519
15396932,508
15406941,512
15416981,511
15427017,500
15437022,499
15447062,504
15457102,496
15467110,499
15477149,495
15487191,496
15497199,495
15507236,497
15517273,500
15527279,496
15537316,496
15547355,496
15557362,499
15567400,500
15577438,496
15587475,499
15597485,501
15607524,505
15617559,505
15627568,506
15637604,498
15647642,502
15657652,498
15667689,501
15677727,503
15687735,498
15697774,497
15707811,498
15717821,500
15727857,496
15737894,501
15747902,496
15757940,495
15767977,493
15777986,495
15788021,498
15798057,494
15808094,495
15818100,495
15828134,502
15838173,502
15848179,497
15858216,501
15868257,501
15878273,500
15888320,498
15898366,497
15908380,503
15918424,502
15928472,503
15938493,501
15948544,500
15958591,506
15968603,499
15978648,502
15988689,496
15998700,505
16008741,501
16018778,505
16028787,511
16038826,511
16048867,518
16058908,515
16068920,521
16078961,525
16089000,534
16099010,536
16109050,535
16119089,532
16129098,538
16139135,532
16149175,524
16159185,523
16169227,517
16179266,516
16189275,514
16199318,512
16209358,502
16219371,506
16229412,496
16239454,502
16249466,498
16259508,500
16269549,494
16279560,491
16289600,497
16299639,498
16309648,494
16319688,500
16329730,494
16339769,492
16349777,498
16359812,503
16369851,500
16379861,495
16389898,497
16399936,502
16409945,496
16419983,501
16430021,499
16440026,496
16450061,493
16460099,500
16470104,496
16480142,494
16490182,495
16500190,495
16510229,496
16520266,496
16530272,493
16540313,492
16550355,498
16560398,499
16570410,494
16580455,496
16590502,494
16600516,498
16610561,492
16620607,500
16630617,504
16640650,503
16650686,502
16660689,504
16670725,502
16680763,503
16690770,505
16700810,505
16710850,498
16720855,501
16730895,506
16740932,499
16750940,497
16760977,501
16771013,499
16781017,505
16791053,505
16801089,508
16811126,507
16821134,507
16831170,511
16841209,511
16851215,508
16861251,518
16871283,521
16881285,524
16891322,532
16901361,534
16911367,540
16921404,539
16931444,543
16941451,542
16951487,532
16961523,534
16971527,529
16981563,530
16991597,523
17001602,515
17011639,518
17021674,515
17031676,511
17041711,502
17051745,504
17061750,498
17071786,499
17081822,496
17091859,504
17101869,502
17111906,500
17121943,498
17131951,505
17141991,500
17152029,500
17162041,507
17172085,510
17182125,503
17192134,509
17202174,502
17212215,508
17222224,504
17232267,500
17242311,509
17252321,507
17262360,499
17272396,504
17282396,504
17292428,505
17302461,508
17312494,498
17322499,504
17332533,505
17342566,505
17352569,508
17362598,502
17372632,505
17382633,505
17392668,508
17402703,499
17412706,507
17422740,504
17432774,506
17442779,500
17452816,500
17462853,502
17472861,499
17482897,502
17492933,504
17502937,499
17512971,501
17523006,504
17533010,498
17543044,498
17553081,501
17563090,500
17573128,496
17583163,502
17593197,503
17603202,501
17613239,500
17623277,506
17633281,506
17643316,511
17653351,511
17663354,520
17673388,523
17683422,531
17693426,533
17703458,537
17713493,538
17723498,534
17733533,540
17743565,534
17753566,530
17763603,531
17773639,527
17783647,527
17793682,516
17803717,519
17813751,512
17823753,511
17833788,505
17843826,506
17853830,497
17863862,503
17873894,493
17883899,495
17893933,501
17903967,494
17913970,491
17924001,500
17934034,495
17944042,496
17954079,495
17964117,496
17974125,503
17984161,500
17994199,499
18004205,502
18014243,502
18024280,498
18034284,505
18044325,501
18054363,503
18064400,501
18074406,505
18084444,504
18094482,499
18104489,505
18114528,501
18124565,497
18134570,497
18144607,507
18154642,505
18164646,501
18174681,504
18184716,502
18194720,500
18204755,503
18214791,496
18224794,504
18234821,502
18244848,502
18254850,502
18264880,499
18274911,494
18284913,504
18294949,501
18304983,498
18314986,502
18325016,497
18335045,504
18345077,500
18355082,504
18365122,500
18375161,501
18385168,501
18395204,502
18405238,501
18415246,502
18425283,502
18435318,505
18445322,504
18455358,505
18465396,511
18475405,515
18485440,524
18495477,526
18505485,531
18515523,535
18525557,538
18535563,534
18545594,533
18555631,531
18565668,528
18575673,530
18585708,521
18595744,527
18605745,518
18615777,516
18625812,512
18635818,512
18645854,506
18655892,502
18665900,506
18675939,503
18685976,497
18695982,495
18706021,497
18716060,496
18726062,494
18736099,498
18746136,498
18756142,499
18766177,498
18776210,493
18786214,503
18796252,497
18806287,504
18816291,498
18826327,505
18836363,506
18846400,505
18856406,502
18866444,501
18876479,506
18886487,503
18896526,504
18906565,501
18916570,499
18926605,502
18936641,497
18946646,495
18956681,500
18966711,497
18976719,494
18986756,502
18996796,499
19006802,502
19016834,496
19026867,495
19036867,501
19046901,501
19056934,497
19066939,498
19076979,501
19087018,502
19097058,502
19107070,504
19117111,501
19127150,497
19137156,501
19147189,502
19157224,503
19167230,503
19177265,502
19187300,504
19197302,497
19207336,503
19217371,504
19227374,498
19237408,499
19247439,500
19257441,504
19267472,507
19277499,508
19287501,513
19297533,516
19307567,519
19317602,524
19327601,521
19337630,525
19347659,529
19357658,532
19367692,533
19377724,526
19387723,520
19397760,526
19407794,524
19417798,513
19427828,521
19437862,508
19447867,516
19457899,507
19467933,508
19477935,508
19487968,500
19498003,506
19508004,504
19518035,499
19528067,496
19538067,497
19548099,501
19558129,506
19568128,497
19578158,505
19588189,502
19598221,506
19608221,504
19618254,502
19628283,503
19638283,507
19648317,507
19658354,499
19668361,503
19678399,500
19688439,504
19698443,508
19708475,499
19718506,505
19728508,506
19738540,499
19748575,500
19758578,501
19768611,498
19778641,501
19788646,500
19798683,498
19808719,499
19818726,505
19828760,498
19838792,502
19848828,505
19858832,504
19868865,500
19878902,505
19888908,506
19898940,507
19908970,498
19918971,503
19929008,506
19939039,503
19949041,500
19959076,505
19969109,499
19979111,505
19989144,501
19999177,502
20009181,504
20019213,503
20029246,507
20039248,512
20049285,516
20059324,520
20069328,524
20079363,528
20089401,532
20099432,536
20109440,534
20119478,534
20129514,531
20139520,531
20149555,526
20159592,527
20169596,521
20179629,519
20189664,521
20199669,511
20209706,516
20219746,512
20229750,513
20239783,502
20249821,500
20259825,499
20269866,505
20279914,502
20289930,504
20299980,504
20310023,505
20320061,504
20330072,506
20340115,504
20350152,504
20360156,502
20370190,500
20380223,500
20390229,506
20400264,508
20410299,503
20420303,503
20430335,504
20440371,500
20450376,504
20460412,501
20470447,505
20480451,497
20490486,503
20500520,505
20510522,499
20520557,505
20530590,498
20540596,504
20550629,504
20560662,499
20570668,497
20580707,502
20590744,497
20600782,496
20610789,498
20620832,502
20630874,504
20640878,505
20650908,506
20660942,503
20670946,499
20680979,500
20691013,500
20701013,499
20711047,504
20721083,503
20731086,501
20741118,498
20751152,503
20761156,499
20771192,504
20781228,502
20791234,508
20801266,510
20811302,515
20821333,519
20831334,524
20841367,525
20851403,527
20861408,526
20871447,534
20881484,528
20891489,534
20901521,531
20911555,526
20921558,527
20931592,529
20941626,524
20951628,524
20961659,516
20971691,517
20981692,514
20991722,516
21001754,512
21011752,510
21021782,510
21031811,501
21041812,505
21051844,505
21061876,502
21071879,498
21081911,501
21091941,504
21101972,506
21111973,504
21122005,503
21132033,507
21142032,505
21152063,504
21162094,504
21172095,504
21182128,507
21192160,507
21202162,499
21212196,502
21222229,506
21232230,505
21242264,504
21252299,502
21262308,497
21272342,506
21282378,505
21292383,506
21302421,500
21312456,500
21322491,501
21332496,499
21342530,499
21352565,500
21362572,496
21372608,500
21382646,498
21392649,504
21402684,504
21412718,500
21422724,504
21432763,505
21442802,498
21452808,500
21462844,499
21472882,504
21482891,497
21492927,496
21502963,504
21512969,501
21523006,496
21533043,500
21543044,499
21553081,502
21563117,504
21573155,501
21583160,509
21593197,504
21603235,515
21613241,517
21623277,519
21633313,527
21643320,523
21653356,527
21663392,525
21673401,532
21683436,532
21693473,532
21703480,526
21713519,529
21723555,521
21733559,525
21743597,518
21753635,513
21763645,517
21773686,515
21783727,511
21793737,503
21803776,511
21813818,507
21823858,504
21833869,501
21843911,500
21853950,499
21863958,501
21873999,500
21884036,502
21894040,500
21904076,506
21914116,503
21924127,507
21934169,505
21944212,503
21954220,505
21964257,509
21974296,508
21984305,504
21994343,501
22004380,499
22014386,504
22024423,502
22034462,500
22044468,497
22054505,504
22064542,500
22074581,502
22084587,503
22094622,502
22104658,507
22114664,503
22124698,501
22134734,506
22144742,503
22154783,501
22164822,503
22174828,500
22184868,499
22194907,504
22204913,497
22214949,503
22224981,505
22234985,502
22245020,505
22255056,499
22265061,503
22275097,500
22285134,505
22295141,499
22305175,507
22315212,497
22325217,502
22335256,501
22345290,504
22355324,506
22365330,500
22375367,508
22385409,511
22395417,512
22405456,510
22415491,514
22425493,524
22435527,532
22445560,532
22455561,533
22465594,530
22475629,537
22485635,529
22495672,533
22505707,531
22515711,528
22525746,527
22535785,517
22545795,523
22555836,519
22565870,512
22575904,512
22585908,510
22595944,508
22605982,507
22615988,499
22626025,504
22636064,504
22646069,505
22656107,502
22666144,496
22676151,506
22686190,499
22696230,503
22706240,506
22716278,502
22726313,503
22736319,504
22746355,502
22756391,506
22766394,506
22776431,504
22786468,498
22796477,503
22806518,502
22816558,500
22826598,503
22836607,501
22846647,505
22856686,503
22866696,498
22876732,501
22886769,499
22896773,500
22906809,503
22916847,505
22926855,496
22936898,499
22946942,504
22956956,505
22967000,499
22977043,505
22987055,503
22997098,500
23007140,504
23017150,501
23027189,500
23037227,498
23047233,504
23057269,504
23067305,503
23077307,497
23087340,502
23097373,497
23107404,500
23117408,501
23127444,501
23137480,503
23147483,504
23157516,509
23167548,506
23177550,505
23187586,504
23197621,511
23207625,512
23217662,517
23227695,520
23237697,532
23247730,533
23257757,538
23267758,540
23277796,537
23287833,538
23297837,541
23307874,533
23317910,540
23327917,531
23337954,534
23347990,526
23358025,528
23368028,522
23378062,525
23388098,514
23398105,520
23408141,514
23418179,509
23428185,503
23438225,506
23448262,505
23458272,496
23468308,504
23478342,501
23488347,504
23498382,502
23508418,501
23518421,500
23528455,502
23538487,503
23548491,500
23558529,498
23568566,504
23578604,497
23588609,499
23598646,506
23608683,501
23618688,503
23628724,502
23638760,498
23648764,501
23658796,498
23668830,500
23678833,497
23688868,501
23698902,496
23708908,507
23718942,504
23728974,505
23738976,506
23749009,504
23759044,507
23769050,501
23779087,504
23789122,503
23799129,497
23809165,505
23819199,498
23829229,500
23839232,497
23849264,505
23859301,504
23869306,497
23879342,502
23889376,497
23899380,499
23909417,506
23919450,501
23929452,502
23939488,505
23949527,499
23959534,507
23969575,498
23979615,507
23989621,508
23999659,504
24009696,507
24019702,505
24029736,504
24039773,503
24049782,512
24059820,519
24069858,524
24079896,529
24089900,524
24099937,531
24109973,535
24119979,536
24130018,535
24140052,535
24150058,531
24160096,526
24170131,528
24180139,523
24190174,524
24200210,521
24210215,514
24220250,512
24230286,509
24240291,509
24250328,500
24260362,504
24270365,496
24280399,495
24290428,497
24300428,498
24310461,491
24320497,490
24330529,498
24340531,499
24350562,497
24360592,500
24370593,500
24380625,502
24390657,504
24400659,498
24410693,501
24420727,504
24430729,500
24440758,501
24450786,500
24460789,500
24470818,507
24480846,503
24490847,501
24500878,497
24510912,503
24520915,504
24530949,501
24540984,503
24550988,501
24561022,504
24571056,504
24581088,496
24591087,501
24601118,497
24611151,495
24621150,499
24631181,504
24641215,498
24651218,502
24661255,501
24671291,503
24681300,503
24691339,497
24701377,501
24711383,502
24721420,501
24731460,504
24741469,507
24751505,498
24761541,506
24771546,498
24781582,504
24791617,502
24801623,504
24811658,507
24821695,501
24831696,507
24841731,504
24851765,504
24861803,502
24871805,504
24881841,504
24891879,509
24901886,506
24911917,507
24921951,513
24931950,517
24941981,513
24952013,521
24962019,527
24972056,531
24982092,531
24992099,532
25002137,531
25012175,530
25022182,525
25032217,529
25042255,526
25052258,528
25062291,525
25072328,518
25082332,522
25092367,519
25102400,517
25112435,516
25122440,510
25132472,510
25142505,508
25152505,509
25162532,505
25172565,504
25182568,505
25192601,499
25202635,507
25212638,502
25222672,507
25232706,504
25242708,507
25252741,499
25262773,501
25272774,508
25282808,503
25292841,502
25302847,504
25312885,501
25322922,499
25332928,503
25342962,496
25352998,502
25363032,495
25373034,501
25383069,505
25393104,501
25403111,504
25413147,515
25423182,502
25433184,500
25443219,504
25453253,506
25463258,495
25473295,501
25483333,496
25493343,502
25503382,507
25513421,500
25523428,507
25533466,497
25543503,503
25553506,500
25563542,503
25573580,504
25583616,500
25593620,506
25603654,504
25613689,502
25623692,504
25633723,505
25643757,508
25653758,504
25663791,505
25673826,507
25683829,507
25693867,504
25703904,505
25713910,505
25723946,508
25733981,506
25743987,505
25754023,500
25764056,510
25774057,509
25784093,512
25794129,508
25804132,519
25814167,519
25824201,519
25834236,528
25844241,527
25854278,532
25864310,526
25874313,533
25884349,535
25894387,528
25904393,529
25914432,527
25924471,521
25934475,518
25944509,519
25954546,515
25964552,516
25974587,514
25984624,510
25994629,508
26004662,507
26014698,505
26024701,502
26034735,501
26044770,508
26054776,506
26064810,506
26074846,501
26084850,507
26094885,504
26104920,505
26114957,504
26124964,508
26135002,505
26145039,505
26155044,506
26165082,504
26175113,503
26185115,499
26195149,506
26205182,503
26215187,497
26225225,506
26235262,498
26245264,504
26255297,506
26265333,503
26275338,505
26285372,496
26295404,500
26305408,503
26315443,500
26325482,498
26335521,501
26345530,506
26355568,500
26365604,498
26375611,499
26385650,499
26395689,504
26405696,505
26415735,502
26425772,502
26435776,504
26445813,496
26455846,500
26465850,505
26475886,504
26485921,505
26495926,507
26505961,504
26515995,504
26525999,507
26536032,503
26546066,504
26556070,504
26566107,500
26576142,501
26586180,503
26596183,506
26606223,499
26616256,504
26626258,505
26636287,507
26646318,508
26656322,513
26666356,515
26676390,519
26686393,517
26696425,518
26706459,516
26716463,520
26726497,515
26736533,508
26746538,512
26756573,512
26766610,504
26776614,503
26786647,499
26796679,505
26806681,504
26816715,507
26826749,497
26836753,504
26846788,499
26856823,500
26866856,502
26876859,501
26886894,498
26896927,505
26906932,507
26916966,504
26927002,507
26937008,507
26947045,504
26957083,504
26967087,503
26977121,499
26987155,507
26997157,504
27007188,501
27017220,508
27027225,502
27037262,505
27047300,503
27057308,505
27067344,504
27077379,500
27087381,508
27097415,502
27107452,506
27117489,504
27127495,507
27137531,506
27147565,502
27157572,505
27167609,505
27177646,506
27187650,510
27197687,505
27207724,506
27217728,507
27227767,513
27237806,510
27247813,509
27257850,508
27267887,506
27277898,500
27287939,503
27297977,506
27307987,506
27318025,506
27328064,505
27338073,506
27348114,506
27358152,507
27368192,508
27378199,511
27388238,513
27398274,511
27408283,514
27418323,515
27428361,518
27438368,519
27448407,515
27458447,513
27468460,515
27478504,517
27488546,519
27498559,512
27508602,516
27518643,514
27528654,513
27538698,513
27548744,505
27558757,509
27568799,505
27578843,506
27588885,507
27598899,506
27608941,508
27618981,508
27628990,508
27639030,503
27649072,507
27659084,509
27669131,507
27679180,505
27689191,505
27699234,509
27709274,507
27719284,503
27729322,509
27739365,506
27749375,501
27759415,502
27769455,508
27779469,508
27789511,509
27799552,504
27809562,502
27819603,507
27829644,502
27839687,506
27849701,501
27859745,508
27869788,500
27879798,503
27889839,501
27899878,501
27909890,507
27919934,502
27929972,505
27939978,505
27950017,509
27960053,508
27970064,506
27980106,502
27990146,507
28000156,507
28010198,503
28020238,508
28030250,504
28040291,507
28050333,508
28060343,506
28070385,506
28080427,507
28090468,509
28100478,506
28110517,510
28120561,512
28130574,514
28140615,513
28150653,519
28160661,517
28170709,524
28180753,520
28190760,525
28200798,521
28210836,521
28220840,524
28230879,516
28240919,514
28250923,518
28260959,518
28270996,518
28281003,513
28291040,515
28301079,511
28311086,511
28321121,507
28331156,507
28341197,505
28351209,505
28361249,504
28371286,504
28381291,506
28391325,505
28401359,504
28411363,508
28421400,507
28431435,504
28441442,509
28451479,510
28461516,508
28471525,503
28481565,510
28491603,503
28501608,507
28511646,508
28521685,505
28531693,506
28541736,506
28551776,505
28561782,507
28571819,502
28581856,501
28591863,509
28601896,508
28611929,506
28621967,506
28631976,509
28642015,510
28652052,499
28662058,505
28672094,506
28682131,507
28692141,500
28702183,508
28712222,506
28722230,508
28732266,510
28742302,505
28752309,508
28762347,501
28772383,504
28782391,509
28792430,507
28802469,504
28812477,510
28822517,510
28832552,511
28842556,515
28852600,513
28862644,520
28872688,518
28882705,527
28892749,525
28902793,525
28912799,529
28922835,533
28932871,532
28942877,527
28952908,525
28962943,524
28972948,525
28982985,526
28993021,523
29003027,516
29013065,522
29023101,508
29033108,513
29043143,506
29053180,504
29063189,506
29073227,509
29083264,507
29093302,498
29103309,503
29113348,504
29123385,502
29133389,503
29143426,500
29153463,507
29163471,501
29173511,510
29183553,507
29193561,501
29203598,510
29213634,503
29223638,510
29233674,507
29243708,512
29253712,510
29263747,510
29273783,509
29283788,503
29293819,510
29303848,508
29313851,503
29323885,504
29333920,506
29343954,510
29353957,506
29363991,508
29374024,505
29384030,508
29394068,508
29404107,505
29414115,505
29424154,509
29434194,499
29444202,507
29454239,506
29464281,502
29474293,509
29484332,504
29494373,506
29504387,506
29514427,505
29524466,500
29534474,507
29544510,508
29554548,500
29564555,506
29574592,505
29584631,505
29594642,503
29604682,501
29614718,501
29624754,510
29634756,505
29644791,503
29654832,502
29664842,510
29674880,508
29684919,510
29694926,521
29704961,526
29714997,526
29725001,525
29735035,527
29745070,535
29755075,539
29765111,532
29775148,534
29785156,533
29795194,531
29805231,528
29815238,523
29825273,522
29835308,520
29845312,520
29855347,513
29865385,511
29875424,506
29885432,512
29895469,508
29905505,510
29915511,505
29925545,508
29935582,499
29945591,504
29955632,504
29965674,499
29975682,506
29985720,503
29995759,507
30005770,503
30015813,509
30025851,501
30035857,509
30045897,504
30055936,506
30065944,505
30075989,506
30086033,510
30096048,500
30106092,506
30116137,506
30126178,509
30136186,508
30146224,502
30156262,508
30166270,508
30176309,506
30186346,509
30196354,505
30206393,503
30216430,499
30226436,508
30236479,504
30246514,509
30256522,501
30266564,505
30276600,506
30286607,504
30296646,504
30306681,503
30316686,504
30326720,501
30336757,505
30346767,506
30356807,505
30366847,505
30376887,507
30386896,501
30396938,504
30406980,506
30416987,501
30427029,507
30437071,506
30447079,506
30457121,507
30467160,506
30477169,507
30487207,504
30497251,506
30507261,502
30517301,504
30527339,505
30537348,506
30547389,511
30557430,506
30567440,516
30577478,523
30587517,522
30597525,528
30607565,527
30617602,520
30627642,527
30637654,525
30647697,525
30657740,526
30667750,519
30677793,521
30687839,517
30697852,514
30707895,512
30717936,512
30727946,513
30737989,510
30748029,504
30758042,506
30768086,504
30778125,504
30788135,502
30798176,501
30808219,499
30818231,501
30828271,504
30838315,508
30848326,506
30858370,506
30868414,508
30878451,510
30888460,504
30898503,501
30908545,509
30918557,510
30928601,502
30938642,508
30948652,502
30958692,507
30968733,504
30978744,508
30988782,503
30998822,507
31008829,507
31018868,505
31028909,505
31038919,503
31048959,505
31058998,507
31069006,507
31079045,506
31089082,508
31099091,504
31109131,503
31119170,498
31129209,501
31139219,502
31149261,503
31159300,510
31169310,508
31179351,506
31189394,500
31199406,500
31209446,502
31219486,503
31229497,503
31239538,495
31249576,504
31259586,506
31269623,499
31279659,501
31289666,504
31299703,505
31309739,499
31319745,500
31329780,500
31339816,506
31349852,505
31359861,502
31369900,507
31379939,498
31389946,502
31399983,507
31410021,502
31420029,501
31430068,501
31440106,505
31450116,500
31460156,505
31470198,504
31480208,512
31490251,517
31500292,518
31510303,513
31520342,520
31530380,517
31540389,514
31550429,515
31560469,509
31570478,514
31580519,510
31590558,510
31600598,512
31610605,509
31620644,503
31630683,503
31640695,499
31650739,504
31660783,502
31670798,502
31680839,499
31690883,502
31700894,501
31710934,498
31720978,503
31730991,503
31741033,504
31751073,508
31761082,510
31771120,508
31781160,506
31791168,507
31801208,508
31811247,509
31821255,510
31831293,505
31841327,502
31851337,505
31861378,510
31871420,503
31881461,508
31891470,508
31901511,508
31911554,506
31921566,506
31931606,508
31941650,507
31951663,504
31961708,507
31971750,502
31981760,503
31991801,505
32001840,501
32011847,506
32021888,504
32031931,500
32041944,507
32051986,499
32062029,504
32072037,506
32082078,507
32092114,499
32102153,506
32112161,509
32122201,506
32132239,504
32142247,501
32152286,511
32162326,510
32172334,508
32182371,501
32192412,506
32202421,510
32212462,504
32222499,507
32232502,503
32242541,508
32252582,501
32262588,510
32272624,504
32282664,507
32292680,509
32302724,503
32312767,507
32322776,507
32332811,510
32342847,508
32352882,514
32362888,519
32372922,520
32382956,523
32392963,515
32402998,521
32413039,522
32423050,517
32433098,518
32443150,518
32453171,518
32463226,512
32473281,508
32483295,511
32493336,512
32503377,504
32513385,508
32523423,506
32533461,509
32543472,504
32553512,510
32563548,505
32573558,500
32583600,507
32593640,499
32603648,509
32613684,506
32623716,507
32633754,510
32643762,508
32653800,505
32663839,512
32673842,506
32683876,509
32693911,509
32703915,513
32713950,511
32723987,510
32733996,510
32744035,510
32754073,505
32764080,505
32774118,505
32784156,508
32794162,501
32804199,504
32814236,505
32824241,506
32834276,507
32844313,502
32854323,497
32864362,505
32874402,509
32884442,507
32894452,508
32904489,501
32914532,505
32924544,505
32934589,507
32944638,503
32954653,502
32964695,505
32974737,509
32984748,510
32994791,509
33004830,502
33014840,511
33024878,505
33034919,509
33044927,508
33054967,504
33065004,504
33075013,503
33085053,508
33095094,503
33105106,512
33115148,505
33125187,508
33135222,508
33145228,509
33155265,509
33165304,508
33175313,502
33185354,510
33195393,508
33205397,509
33215433,507
33225470,514
33235476,515
33245514,515
33255551,521
33265557,522
33275594,523
33285631,527
33295645,526
33305690,523
33315730,527
33325741,524
33335780,522
33345823,519
33355868,522
33365881,517
33375923,517
33385967,514
33395981,515
33406025,512
33416068,508
33426082,512
33436124,510
33446167,510
33456182,505
33466226,504
33476271,508
33486283,508
33496321,506
33506356,508
33516359,508
33526393,506
33536427,510
33546433,509
33556469,503
33566507,506
33576514,509
33586554,508
33596593,507
33606631,508
33616643,504
33626684,510
33636722,505
33646731,504
33656768,507
33666808,505
33676815,504
33686853,505
33696890,507
33706896,503
33716934,506
33726974,506
33736983,507
33747023,510
33757063,504
33767073,503
33777110,507
33787152,502
33797160,510
33807195,506
33817228,510
33827229,509
33837261,508
33847293,510
33857333,510
33867346,508
33877394,510
33887435,508
33897443,510
33907483,502
33917520,511
33927526,503
33937564,508
33947600,505
33957606,506
33967647,512
33977685,508
33987697,505
33997738,509
34007777,506
34017787,504
34027833,507
34037876,505
34047887,507
34057928,505
34067964,500
34077973,504
34088012,503
34098051,501
34108090,503
34118101,504
34128140,504
34138181,503
34148193,514
34158238,512
34168281,517
34178293,516
34188334,527
34198375,529
34208386,531
34218425,530
34228466,531
34238475,532
34248514,530
34258557,527
34268569,522
34278614,522
34288657,515
34298668,519
34308711,520
34318752,512
34328764,510
34338806,511
34348848,512
34358890,511
34368901,508
34378937,508
34388975,503
34398982,508
34409023,503
34419064,506
34429074,503
34439116,508
34449155,503
34459163,510
34469203,504
34479243,509
34489255,504
34499297,512
34509343,504
34519354,512
34529398,513
34539440,511
34549445,511
34559482,509
34569523,512
34579533,511
34589571,507
34599608,509
34609615,506
34619654,503
34629696,505
34639736,507
34649745,508
34659788,505
34669831,509
34679838,503
34689879,506
34699923,502
34709936,504
34719979,505
34730018,505
34740026,506
34750065,507
34760107,504
34770116,505
34780156,507
34790197,502
34800207,508
34810247,505
34820282,507
34830288,505
34840321,502
34850352,500
34860384,508
34870386,509
34880421,499
34890458,508
34900467,507
34910506,502
34920549,506
34930557,500
34940591,506
34950624,505
34960630,506
34970666,507
34980701,502
34990706,500
35000740,507
35010778,501
35020783,503
35030818,505
35040854,510
35050860,508
35060898,507
35070935,513
35080942,511
35090978,520
35101016,521
35111022,526
35121061,530
35131097,534
35141134,531
35151142,531
35161179,529
35171216,528
35181224,530
35191266,530
35201307,526
35211318,520
35221361,518
35231403,513
35241411,516
35251450,509
35261489,503
35271495,508
35281533,506
35291570,504
35301578,500
35311616,506
35321653,502
35331661,505
35341699,500
35351736,508
35361776,508
35371787,509
35381826,508
35391864,510
35401874,506
35411914,512
35421953,507
35431964,510
35442000,509
35452037,510
35462044,501
35472081,507
35482117,507
35492125,502
35502165,499
35512201,503
35522201,502
35532234,498
35542271,505
35552277,504
35562312,503
35572347,499
35582353,505
35592387,498
35602418,506
35612451,505
35622459,506
35632501,505
35642537,499
35652550,502
35662595,507
35672639,500
35682650,505
35692686,506
35702727,502
35712741,499
35722785,506
35732823,499
35742828,507
35752863,499
35762896,503
35772898,508
35782935,499
35792971,502
35802976,507
35813011,502
35823046,501
35833051,506
35843088,507
35853123,507
35863159,501
35873165,505
35883200,514
35893238,514
35903247,511
35913286,522
35923324,519
35933332,532
35943368,530
35953406,530
35963420,537
35973463,535
35983503,537
35993515,539
36003560,537
36013602,532
36023612,530
36033649,525
36043684,521
36053687,517
36063724,518
36073763,509
36083769,506
36093803,513
36103837,504
36113875,505
36123879,505
36133914,505
36143950,505
36153957,500
36163996,503
36174034,499
36184041,507
36194078,508
36204115,501
36214121,505
36224157,510
36234192,511
36244197,504
36254232,512
36264269,512
36274275,511
36284311,508
36294344,508
36304352,511
36314390,509
36324425,506
36334428,511
36344460,506
36354500,507
36364536,507
36374546,499
36384585,509
36394626,506
36404635,505
36414673,505
36424711,499
36434720,502
36444758,506
36454796,505
36464804,504
36474844,499
36484883,504
36494893,507
36504934,500
36514975,505
36524982,499
36535017,504
36545050,505
36555052,507
36565083,504
36575119,505
36585124,507
36595160,506
36605194,507
36615199,499
36625233,508
36635264,502
36645295,504
36655300,509
36665334,507
36675369,506
36685372,502
36695402,508
36705436,500
36715439,502
36725474,513
36735511,511
36745517,516
36755550,524
36765586,527
36775592,529
36785628,539
36795665,541
36805673,542
36815708,545
36825745,543
36835750,545
36845788,541
36855825,535
36865864,533
36875871,526
36885910,524
36895949,524
36905956,520
36915989,515
36926030,516
36936035,511
36946072,503
36956109,507
36966115,502
36976153,502
36986189,504
36996196,499
37006234,500
37016269,498
37026277,503
37036316,495
37046355,505
37056365,508
37066406,505
37076445,503
37086450,510
37096487,511
37106529,507
37116568,507
37126575,511
37136612,507
37146654,507
37156666,506
37166708,506
37176751,499
37186762,507
37196806,506
37206848,500
37216855,503
37226896,504
37236937,505
37246946,500
37256984,502
37267024,499
37277033,499
37287072,496
37297111,496
37307119,506
37317157,500
37327193,504
37337198,502
37347233,500
37357269,505
37367273,502
37377309,503
37387348,505
37397385,508
37407392,502
37417428,504
37427465,503
37437470,503
37447509,504
37457546,506
37467553,505
37477591,503
37487628,498
37497630,497
37507664,509
37517699,500
37527703,508
37537740,504
37547777,506
37557778,507
37567811,507
37577847,508
37587853,507
37597891,502
37607928,508
37617934,507
37627972,508
37638006,509
37648043,520
37658051,519
37668088,524
37678123,534
37688125,539
37698156,532
37708188,535
37718191,541
37728225,542
37738258,538
37748260,535
37758293,530
37768326,524
37778327,527
37788360,519
37798393,522
37808392,513
37818425,516
37828458,512
37838462,509
37848497,509
37858530,506
37868564,500
37878565,498
37888599,501
37898634,504
37908639,506
37918678,503
37928713,498
37938719,504
37948756,506
37958792,506
37968798,506
37978830,508
37988862,505
37998864,510
38008902,511
38018937,502
38028940,508
38038973,509
38049010,503
38059018,505
38069052,504
38079085,505
38089089,503
38099123,503
38109158,507
38119162,506
38129196,500
38139229,507
38149262,502
38159266,498
38169302,502
38179336,505
38189342,507
38199379,505
38209415,499
38219421,502
38229456,503
38239493,501
38249498,504
38259537,503
38269571,503
38279575,504
38289611,508
38299647,500
38309653,505
38319690,510
38329727,510
38339735,506
38349772,508
38359808,506
38369809,506
38379840,507
38389874,508
38399910,509
38409916,507
38419951,507
38429988,503
38439994,504
38450029,500
38460063,503
38470066,499
38480102,496
38490139,497
38500143,505
38510179,505
38520215,501
38530217,496
38540255,507
38550294,508
38560299,513
38570338,518
38580379,518
38590385,528
38600422,529
38610462,533
38620500,538
38630508,539
38640544,543
38650581,534
38660587,540
38670622,533
38680658,529
38690666,522
38700703,523
38710739,519
38720745,520
38730782,513
38740820,513
38750825,507
38760862,509
38770900,507
38780902,505
38790935,501
38800970,499
38810976,505
38821009,504
38831044,494
38841047,499
38851079,504
38861113,499
38871145,508
38881151,506
38891187,499
38901225,505
38911229,506
38921265,505
38931301,502
38941307,502
38951340,507
38961376,503
38971384,503
38981422,501
38991454,508
39001453,499
39011486,503
39021519,503
39031523,499
39041560,505
39051597,505
39061600,502
39071637,499
39081673,496
39091679,503
39101713,497
39111751,498
39121789,505
39131797,501
39141833,498
39151870,501
39161874,504
39171910,501
39181945,501
39191950,504
39201984,496
39212022,502
39222029,502
39232065,498
39242102,497
39252107,503
39262144,505
39272181,505
39282186,504
39292224,500
39302260,503
39312269,506
39322310,506
39332351,505
39342362,498
39352400,497
39362434,506
39372468,502
39382471,500
39392505,507
39402541,502
39412548,503
39422585,499
39432622,507
39442631,501
39452671,507
39462709,503
39472713,508
39482749,515
39492785,513
39502788,524
39512821,522
39522856,533
39532863,534
39542901,529
39552936,534
39562942,532
39572980,530
39583020,527
39593027,521
39603065,522
39613099,515
39623134,513
39633137,515
39643171,516
39653207,505
39663214,506
39673250,504
39683286,505
39693290,505
39703323,502
39713361,503
39723370,500
39733410,499
39743453,501
39753459,504
39763500,504
39773544,505
39783557,503
39793601,499
39803646,500
39813659,509
39823702,504
39833748,507
39843762,499
39853809,507
39863856,504
39873904,504
39883919,497
39893966,504
39904011,504
39914022,503
39924066,498
39934109,505
39944122,501
39954167,504
39964212,503
39974225,506
39984268,498
39994311,505
40004323,502
40014365,499
40024405,505
40034414,505
40044457,505
40054499,499
40064511,507
40074556,507
40084604,505
40094617,509
40104662,507
40114704,507
40124748,506
40134760,500
40144803,502
40154844,506
40164855,509
40174897,505
40184938,503
40194951,507
40204993,500
40215038,508
40225049,505
40235089,508
40245132,506
40255140,508
40265182,500
40275225,508
40285233,506
40295271,502
40305308,507
40315315,501
40325352,505
40335394,506
40345403,505
40355442,505
40365481,513
40375519,515
40385528,521
40395566,523
40405605,530
40415612,533
40425646,526
40435681,532
40445684,535
40455720,531
40465757,529
40475764,523
40485801,525
40495841,521
40505851,518
40515894,512
40525936,513
40535951,510
40545996,507
40556044,508
40566063,508
40576108,503
40586145,509
40596156,502
40606196,508
40616242,505
40626286,508
40636300,509
40646342,504
40656382,502
40666388,508
40676424,503
40686461,507
40696467,509
40706503,506
40716541,508
40726547,499
40736584,505
40746627,497
40756639,502
40766684,501
40776727,504
40786738,504
40796779,501
40806817,506
40816826,502
40826867,498
40836907,501
40846915,500
40856955,507
40866993,503
40877030,499
40887038,506
40897075,502
40907117,504
40917123,504
40927160,500
40937199,502
40947205,506
40957240,508
40967279,505
40977281,507
40987317,504
40997354,507
41007357,504
41017392,505
41027427,502
41037431,504
41047466,504
41057505,505
41067514,507
41077553,507
41087585,506
41097590,508
41107621,505
41117657,507
41127662,499
41137699,509
41147737,510
41157776,507
41167786,505
41177829,505
41187871,505
41197882,505
41207921,509
41217958,506
41227971,508
41238015,509
41248055,510
41258064,511
41268101,522
41278139,526
41288147,530
41298185,527
41308223,530
41318228,528
41328259,527
41338291,529
41348295,527
41358334,527
41368373,519
41378381,514
41388414,510
41398447,505
41408483,511
41418490,507
41428530,505
41438566,506
41448569,502
41458601,501
41468636,501
41478642,497
41488676,497
41498714,505
41508722,504
41518758,508
41528794,508
41538802,505
41548840,508
41558878,506
41568886,511
41578923,511
41588964,512
41598973,509
41609012,512
41619051,506
41629092,508
41639101,503
41649139,507
41659177,509
41669182,504
41679213,508
41689246,506
41699249,502
41709280,506
41719312,504
41729311,504
41739344,502
41749373,499
41759369,504
41769396,505
41779430,506
41789432,503
41799468,503
41809506,504
41819512,506
41829551,502
41839588,502
41849598,503
41859632,502
41869668,502
41879703,506
41889709,502
41899744,504
41909780,502
41919786,506
41929821,505
41939856,504
41949863,506
41959898,508
41969935,499
41979939,505
41989973,504
42000004,500
42010002,506
42020032,506
42030064,507
42040064,505
42050096,508
42060131,507
42070133,512
42080167,515
42090199,518
42100202,524
42110237,523
42120271,522
42130272,530
42140304,528
42150336,531
42160367,530
42170372,522
42180408,524
42190444,524
42200452,515
42210490,519
42220526,514
42230530,505
42240558,510
42250592,510
42260594,510
42270629,507
42280662,501
42290662,499
42300693,502
42310725,501
42320728,497
42330762,505
42340794,501
42350796,505
42360830,508
42370864,505
42380868,509
42390901,510
42400937,503
42410971,508
42420974,508
42431009,508
42441045,508
42451047,503
42461076,507
42471112,501
42481116,508
42491148,507
42501178,507
42511179,508
42521210,499
42531242,508
42541240,503
42551271,504
42561303,506
42571307,505
42581341,503
42591372,509
42601376,507
42611411,503
42621446,506
42631479,505
42641483,502
42651517,508
42661550,507
42671553,504
42681585,501
42691617,506
42701622,506
42711654,505
42721683,504
42731683,505
42741717,504
42751752,504
42761756,499
42771794,508
42781831,504
42791839,508
42801879,509
42811915,512
42821920,517
42831955,518
42841990,522
42851990,531
42862023,531
42872057,538
42882091,534
42892090,529
42902121,535
42912156,526
42922160,528
42932196,525
42942232,524
42952235,515
42962270,515
42972303,517
42982304,518
42992340,510
43002376,511
43012382,504
43022418,506
43032452,509
43042456,505
43052493,502
43062530,506
43072534,506
43082566,501
43092599,507
43102600,506
43112632,507
43122664,508
43132698,511
43142700,505
43152735,510
43162766,507
43172767,509
43182800,504
43192834,511
43202836,510
43212870,505
43222906,508
43232911,509
43242947,502
43252982,507
43262989,505
43273028,504
43283068,505
43293075,503
43303112,508
43313149,506
43323157,501
43333191,506
43343222,508
43353225,504
43363258,504
43373290,498
43383324,508
43393325,499
43403359,502
43413394,501
43423397,508
43433429,505
43443462,502
43453468,508
43463502,506
43473534,507
43483535,506
43493571,503
43503602,499
43513604,509
43523638,510
43533673,511
43543676,518
43553712,522
43563750,528
43573755,531
43583788,532
43593822,531
43603826,539
43613859,537
43623892,537
43633925,537
43643929,536
43653965,537
43664002,533
43674006,528
43684041,527
43694076,516
43704082,521
43714119,520
43724155,516
43734159,513
43744192,511
43754225,507
43764228,501
43774261,499
43784295,506
43794297,503
43804331,503
43814364,504
43824365,505
43834398,504
43844433,505
43854438,501
43864474,499
43874514,504
43884550,506
43894554,506
43904590,503
43914627,508
43924632,505
43934670,506
43944705,502
43954710,503
43964747,503
43974781,504
43984786,506
43994823,502
44004860,505
44014865,501
44024900,503
44034933,505
44044936,505
44054970,500
44065004,505
44075005,503
44085039,504
44095075,501
44105079,504
44115112,502
44125145,507
44135182,502
44145187,507
44155220,505
44165256,504
44175257,505
44185292,501
44195328,500
44205333,507
44215369,504
44225404,506
44235409,502
44245445,497
44255481,505
44265485,501
44275520,502
44285556,505
44295559,507
44305593,508
44315625,512
44325632,514
44335674,516
44345714,528
44355724,530
44365761,527
44375797,536
44385833,537
44395837,532
44405871,543
44415906,539
44425911,534
44435941,534
44445974,530
44455975,525
44466009,517
44476041,519
44486041,510
44496071,512
44506105,512
44516108,507
44526142,506
44536176,505
44546179,500
44556213,505
44566247,500
44576250,496
44586280,501
44596315,501
44606320,506
44616357,501
44626393,501
44636428,502
44646431,508
44656465,508
44666502,503
44676505,501
44686538,508
44696574,508
44706580,498
44716617,506
44726654,503
44736663,506
44746703,505
44756744,503
44766756,504
44776797,505
44786836,502
44796842,503
44806878,504
44816918,497
44826930,505
44836972,503
44847014,501
44857027,504
44867065,500
44877110,507
44887148,503
44897151,504
44907190,508
44917224,508
44927228,501
44937263,500
44947299,508
44957306,505
44967345,506
44977383,502
44987389,502
44997427,504
45007461,504
45017467,504
45027503,499
45037537,504
45047538,503
45057572,505
45067608,501
45077615,505
45087649,504
45097687,507
45107694,508
45117730,506
45127765,512
45137769,518
45147805,523
45157842,529
45167878,530
45177883,537
45187917,538
45197956,543
45207961,534
45217994,534
45228030,539
45238037,531
45248073,533
45258109,529
45268113,521
45278146,516
45288182,515
45298187,517
45308225,514
45318261,511
45328267,510
45338302,504
45348340,501
45358351,499
45368393,499
45378438,497
45388483,502
45398499,500
45408544,496
45418592,498
45428612,498
45438656,502
45448697,507
45458707,507
45468750,505
45478792,506
45488802,510
45498844,503
45508881,507
45518893,505
45528937,503
45538979,506
45548994,501
45559033,503
45569070,505
45579078,502
45589115,503
45599153,506
45609159,500
45619193,503
45629233,505
45639241,506
45649279,504
45659313,504
45669350,501
45679355,504
45689391,507
45699430,509
45709436,501
45719475,505
45729508,509
45739512,506
45749550,503
45759585,505
45769590,506
45779624,503
45789658,501
45799662,504
45809693,499
45819730,505
45829736,502
45839775,500
45849809,495
45859812,499
45869848,505
45879882,501
45889917,507
45899918,506
45909953,502
45919986,508
45929989,504
45940021,507
45950056,518
45960058,524
45970090,522
45980126,526
45990135,526
46000176,535
46010219,532
46020233,536
46030270,526
46040309,532
46050315,530
46060354,522
46070391,514
46080397,520
46090433,510
46100469,507
46110475,510
46120515,507
46130550,504
46140588,498
46150593,499
46160631,500
46170667,496
46180674,492
46190711,497
46200750,501
46210758,499
46220797,507
46230841,508
46240847,506
46250886,507
46260926,508
46270936,512
46280980,514
46291021,515
46301031,509
46311072,514
46321117,513
46331128,503
46341169,506
46351209,510
46361217,502
46371259,506
46381300,507
46391341,507
46401352,507
46411391,502
46421430,504
46431437,495
46441477,501
46451515,503
46461522,504
46471559,497
46481597,500
46491605,504
46501644,505
46511684,505
46521694,500
46531730,502
46541766,503
46551774,501
46561814,502
46571855,497
46581863,499
46591902,501
46601943,506
46611955,500
46621995,502
46632034,506
46642079,505
46652094,504
46662139,498
46672184,504
46682191,502
46692233,503
46702269,504
46712272,505
46722309,501
46732348,507
46742357,510
46752396,507
46762438,516
46772449,517
46782489,526
46792532,533
46802542,532
46812582,536
46822624,539
46832632,536
46842673,529
46852715,540
46862725,535
46872766,528
46882805,525
46892813,521
46902853,521
46912893,518
46922933,518
46932943,507
46942981,510
46953021,508
46963031,502
46973069,511
46983109,505
46993118,507
47003158,502
47013198,505
47023208,508
47033247,508
47043286,501
47053297,504
47063334,509
47073375,502
47083385,505
47093427,508
47103467,505
47113476,504
47123515,509
47133552,505
47143593,507
47153600,506
47163638,504
47173675,503
47183681,501
47193713,504
47203746,501
47213751,503
47223786,495
47233821,496
47243824,504
47253858,505
47263894,502
47273900,495
47283937,505
47293974,502
47303978,507
47314014,503
47324052,502
47334058,504
47344097,504
47354135,501
47364142,499
47374176,502
47384214,500
47394249,501
47404253,496
47414289,503
47424324,499
47434329,496
47444365,499
47454401,505
47464406,500
47474443,505
47484479,503
47494485,497
47504523,498
47514561,505
47524570,506
47534607,507
47544645,501
47554654,506
47564695,507
47574733,508
47584742,509
47594779,510
47604816,517
47614827,520
47624867,528
47634906,529
47644944,533
47654953,544
47664993,542
47675028,540
47685034,545
47695074,538
47705115,532
47715123,532
47725160,532
47735197,529
47745202,524
47755237,521
47765274,517
47775281,516
47785319,507
47795356,510
47805363,506
47815400,505
47825439,499
47835445,505
47845483,502
47855520,499
47865527,504
47875561,510
47885597,507
47895635,510
47905642,506
47915679,509
47925712,505
47935715,509
47945751,509
47955788,503
47965791,508
47975827,506
47985862,509
47995867,506
48005901,502
48015935,498
48025939,498
48035972,501
48046007,497
48056008,496
48066043,500
48076081,497
48086090,495
48096125,501
48106162,495
48116171,498
48126210,503
48136248,500
48146286,500
48156295,500
48166333,497
48176369,498
48186374,501
48196410,500
48206444,494
48216448,500
48226487,505
48236525,504
48246534,503
48256573,501
48266611,505
48276619,503
48286658,499
48296694,503
48306699,498
48316739,504
48326779,500
48336788,501
48346826,503
48356863,503
48366872,501
48376911,507
48386949,507
48396959,513
48406996,516
48417036,520
48427077,525
48437082,528
48447120,528
48457160,533
48467168,537
48477205,530
48487245,537
48497254,535
48507293,533
48517329,525
48527338,527
48537378,519
48547419,515
48557428,514
48567466,510
48577505,512
48587515,503
48597557,508
48607595,505
48617606,501
48627647,500
48637686,498
48647725,500
48657732,496
48667769,496
48677807,503
48687811,499
48697846,500
48707879,502
48717880,500
48727915,503
48737950,505
48747955,499
48757989,497
48768024,503
48778028,499
48788061,505
48798096,501
48808100,502
48818133,503
48828169,500
48838174,503
48848209,497
48858245,504
48868251,502
48878286,496
48888322,500
48898328,496
48908368,501
48918405,502
48928441,504
48938446,502
48948483,497
48958519,498
48968526,501
48978565,503
48988603,504
48998610,502
49008647,501
49018685,504
49028692,498
49038732,503
49048772,507
49058782,505
49068824,505
49078860,501
49088868,499
49098904,502
49108941,502
49118945,503
49128978,504
49139015,511
49149053,511
49159062,514
49169101,519
49179139,528
49189149,527
49199188,528
49209226,533
49219235,527
49229271,535
49239310,528
49249317,532
49259356,522
49269394,518
49279406,525
49289452,517
49299502,520
49309518,515
49319566,510
49329614,512
49339627,509
49349667,507
49359710,503
49369725,506
49379765,500
49389806,503
49399819,502
49409861,499
49419902,502
49429938,503
49439944,504
49449985,506
49460024,504
49470032,508
49480073,501
49490113,507
49500124,505
49510165,501
49520207,505
49530222,505
49540265,499
49550305,498
49560316,502
49570354,503
49580393,504
49590406,501
49600446,497
49610488,504
49620499,504
49630538,500
49640582,502
49650594,499
49660634,498
49670673,499
49680714,503
49690720,500
49700759,501
49710802,503
49720812,503
49730851,504
49740887,503
49750895,505
49760935,504
49770975,505
49780981,506
49791015,507
49801049,499
49811054,505
49821092,508
49831129,508
49841136,508
49851174,506
49861213,512
49871220,517
49881258,513
49891297,522
49901337,528
49911343,527
49921383,533
49931423,535
49941431,540
49951469,540
49961504,541
49971509,533
49981545,534
49991584,527
50001595,522
50011638,520
50021676,522
50031682,520
50041715,518
50051749,516
50061752,512
50071783,511
50081818,509
50091826,505
50101862,504
50111901,497
50121910,504
50131951,495
50141991,500
50152032,497
50162043,499
50172083,504
50182122,506
50192133,509
50202175,509
50212214,507
50222222,510
50232258,511
50242297,507
50252302,511
50262338,504
50272373,503
50282376,508
50292411,510
50302449,506
50312453,508
50322488,506
50332522,505
50342526,502
50352560,508
50362598,508
50372606,508
50382645,502
50392684,497
50402722,502
50412730,500
50422768,499
50432806,504
50442811,506
50452848,499
50462883,503
50472887,502
50482922,497
50492956,504
50502962,504
50512999,502
50523036,498
50533043,504
50543080,505
50553116,504
50563119,496
50573156,495
50583193,504
50593204,506
50603239,507
50613272,512
50623278,513
50633317,517
50643355,524
50653358,522
50663395,528
50673431,529
50683468,530
50693475,536
50703513,526
50713550,530
50723555,529
50733591,521
50743627,524
50753632,518
50763667,519
50773705,516
50783715,514
50793754,513
50803792,513
50813804,510
50823844,505
50833883,505
50843895,505
50853935,503
50863975,501
50873981,501
50884020,503
50894060,504
50904100,501
50914108,506
50924144,504
50934184,502
50944193,509
50954231,508
50964269,505
50974277,508
50984318,507
50994356,507
51004366,504
51014408,510
51024445,506
51034455,505
51044496,504
51054536,506
51064546,499
51074587,501
51084629,501
51094639,501
51104678,504
51114717,503
51124722,500
51134757,504
51144794,503
51154832,499
51164840,499
51174877,498
51184911,496
51194914,503
51204948,496
51214980,504
51224987,505
51235025,504
51245066,502
51255075,501
51265112,499
51275150,506
51285159,498
51295200,503
51305239,499
51315244,505
51325283,506
51335319,499
51345326,501
51355365,501
51365407,505
51375417,499
51385457,499
51395495,500
51405505,506
51415546,507
51425585,506
51435623,514
51445630,520
51455664,519
51465704,526
51475710,522
51485749,522
51495786,530
51505797,529
51515836,530
51525875,528
51535881,523
51545912,520
51555946,517
51565949,515
51575986,513
51586022,507
51596028,508
51606065,510
51616106,507
51626112,505
51636146,503
51646181,501
51656188,501
51666232,503
51676273,500
51686315,502
51696327,502
51706370,499
51716412,504
51726425,499
51736466,504
51746505,502
51756511,506
51766545,499
51776583,506
51786591,498
51796634,505
51806678,502
51816693,508
51826738,504
51836781,503
51846792,508
51856835,506
51866879,504
51876889,499
51886929,505
51896970,504
51906982,507
51917023,504
51927066,503
51937110,505
51947122,505
51957163,506
51967201,504
51977209,504
51987249,504
51997292,506
52007301,498
52017342,502
52027385,499
52037395,507
52047435,507
52057477,505
52067489,503
52077527,502
52087568,507
52097580,499
52107618,505
52117654,504
52127660,507
52137700,502
52147740,498
52157754,505
52167793,498
52177831,506
52187869,504
52197876,502
52207918,505
52217957,505
52227966,509
52238006,507
52248045,508
52258054,507
52268095,513
52278132,513
52288140,516
52298180,514
52308225,512
52318238,512
52328277,519
52338319,510
52348330,510
52358368,514
52368410,512
52378423,509
52388466,504
52398506,512
52408544,510
52418556,501
52428597,501
52438640,508
52448652,507
52458693,504
52468734,504
52478744,504
52488788,501
52498831,498
52508842,497
52518886,506
52528929,502
52538939,505
52548983,506
52559027,504
52569038,504
52579082,505
52589126,504
52599140,504
52609184,504
52619227,505
52629239,508
52639283,503
52649329,498
52659373,505
52669387,503
52679433,499
52689477,508
52699492,508
52709534,509
52719577,506
52729590,508
52739632,505
52749675,511
52759689,509
52769732,505
52779774,507
52789787,511
52799824,504
52809862,505
52819873,511
52829913,507
52839955,505
52849966,504
52860012,506
52870057,506
52880069,504
52890110,511
52900151,510
52910194,506
52920204,503
52930246,502
52940289,508
52950300,507
52960342,504
52970385,511
52980397,505
52990440,505
53000481,509
53010495,506
53020541,509
53030586,506
53040602,509
53050652,508
53060701,504
53070719,511
53080765,510
53090809,508
53100825,512
53110870,513
53120913,510
53130929,517
53140977,515
53151024,514
53161036,511
53171081,516
53181127,505
53191173,509
53201186,511
53211229,509
53221272,508
53231282,511
53241325,512
53251367,509
53261380,507
53271423,510
53281467,504
53291480,510
53301526,508
53311570,508
53321581,509
53331622,511
53341663,507
53351673,510
53361714,512
53371751,513
53381757,512
53391799,504
53401843,506
53411888,505
53421899,507
53431942,506
53441986,505
53452000,501
53462041,506
53472086,501
53482098,511
53492140,506
53502183,499
53512196,507
53522238,504
53532282,501
53542298,507
53552346,505
53562390,504
53572405,505
53582452,505
53592500,502
53602519,508
53612565,505
53622609,503
53632623,503
53642667,510
53652711,510
53662756,502
53672771,507
53682814,510
53692857,506
53702868,508
53712907,507
53722948,512
53732960,505
53743003,509
53753041,508
53763048,510
53773086,511
53783127,507
53793138,510
53803179,511
53813223,512
53823232,508
53833272,508
53843313,508
53853322,508
53863361,510
53873405,516
53883415,512
53893457,519
53903497,521
53913539,515
53923551,518
53933591,519
53943633,518
53953644,517
53963686,516
53973725,513
53983737,516
53993780,514
54003821,512
54013832,511
54023875,510
54033917,514
54043928,513
54053970,516
54064014,512
54074023,515
54084062,517
54094099,517
54104107,519
54114150,509
54124191,511
54134199,518
54144241,520
54154283,513
54164322,522
54174328,520
54184368,519
54194408,516
54204420,516
54214460,516
54224500,509
54234508,517
54244550,516
54254591,514
54264600,514
54274643,508
54284684,511
54294693,505
54304731,509
54314768,509
54324777,505
54334819,508
54344862,508
54354868,506
54364908,503
54374951,502
54384961,508
54395000,507
54405039,501
54415077,501
54425085,504
54435120,504
54445156,503
54455164,500
54465205,504
54475250,507
54485265,504
54495308,500
54505354,505
54515368,505
54525412,502
54535454,508
54545467,502
54555505,508
54565541,506
54575544,505
54585578,506
54595611,511
54605615,506
54615650,510
54625684,514
54635686,521
54645716,525
54655750,524
54665785,517
54675792,523
54685830,525
54695867,525
54705874,523
54715910,522
54725947,522
54735950,513
54745985,515
54756022,516
54766027,514
54776065,513
54786103,512
54796108,509
54806141,504
54816174,503
54826178,504
54836208,504
54846242,503
54856247,502
54866281,499
54876314,503
54886316,500
54896349,502
54906380,505
54916412,501
54926414,506
54936450,510
54946484,507
54956485,506
54966516,509
54976548,509
54986549,507
54996584,501
55006618,502
55016622,505
55026656,505
55036692,500
55046696,507
55056732,510
55066768,506
55076773,506
55086810,502
55096842,501
55106845,507
55116880,507
55126915,505
55136924,506
55146961,503
55156998,507
55167004,508
55177037,505
55187070,506
55197104,506
55207108,505
55217144,502
55227178,508
55237181,504
55247217,506
55257254,502
55267261,507
55277297,509
55287335,507
55297342,505
55307382,508
55317422,503
55327429,509
55337464,501
55347503,504
55357507,505
55367544,506
55377580,507
55387587,512
55397626,511
55407663,513
55417672,513
55427711,517
55437748,523
55447783,514
55457790,518
55467827,525
55477867,526
55487877,527
55497914,527
55507948,523
55517954,523
55527991,519
55538028,519
55548033,519
55558068,515
55568104,514
55578111,510
55588148,514
55598186,510
55608191,506
55618226,509
55628265,507
55638273,504
55648310,505
55658347,507
55668384,504
55678390,504
55688427,505
55698464,503
55708470,509
55718507,503
55728546,509
55738554,509
55748596,513
55758634,506
55768636,512
55778673,514
55788710,514
55798716,513
55808752,511
55818789,514
55828796,502
55838833,505
55848872,502
55858879,504
55868917,503
55878955,511
55888961,508
55898998,508
55909037,508
55919072,505
55929078,507
55939114,507
55949146,503
55959150,504
55969180,505
55979211,506
55989219,509
55999253,498
56009286,503
56019289,504
56029324,504
56039363,503
56049370,505
56059405,510
56069444,508
56079452,502
56089488,507
56099525,509
56109533,508
56119573,511
56129614,510
56139623,506
56149660,511
56159693,514
56169701,515
56179738,511
56189776,517
56199810,518
56209820,517
56219859,520
56229894,518
56239900,526
56249938,523
56259977,526
56269987,528
56280028,536
56290067,535
56300076,534
56310117,528
56320156,532
56330164,531
56340202,528
56350241,527
56360250,520
56370284,522
56380320,518
56390330,515
56400369,513
56410409,509
56420449,512
56430458,501
56440494,499
56450531,508
56460537,506
56470573,502
56480610,504
56490617,507
56500657,505
56510699,504
56520707,501
56530746,505
56540782,503
56550787,505
56560827,502
56570870,500
56580882,506
56590921,501
56600961,500
56610969,501
56621010,499
56631049,505
56641054,500
56651087,503
56661122,508
56671160,512
56681168,511
56691209,515
56701248,513
56711260,512
56721296,518
56731336,525
56741346,522
56751384,526
56761424,525
56771432,519
56781474,528
56791514,519
56801525,526
56811565,524
56821608,517
56831619,514
56841656,518
56851695,510
56861704,505
56871742,505
56881785,508
56891797,506
56901839,506
56911878,503
56921916,504
56931924,502
56941961,500
56952000,500
56962010,501
56972048,504
56982089,505
56992100,505
57002140,512
57012178,513
57022192,515
57032236,522
57042278,531
57052289,533
57062329,527
57072369,534
57082378,536
57092419,536
57102460,533
57112465,533
57122503,530
57132543,527
57142551,522
57152591,520
57162633,524
57172674,519
57182684,518
57192723,517
57202764,512
57212776,512
57222820,510
57232862,505
57242875,512
57252919,507
57262962,503
57272975,509
57283019,507
57293064,512
57303078,510
57313123,510
57323166,512
57333178,513
57343218,511
57353256,509
57363265,511
57373302,510
57383343,511
57393353,509
57403393,504
57413434,503
57423442,504
57433479,510
57443517,508
57453557,506
57463562,502
57473597,507
57483632,505
57493639,505
57503674,504
57513710,509
57523718,511
57533757,504
57543797,502
57553804,511
57563840,507
57573877,510
57583885,506
57593917,506
57603955,508
57613963,504
57624003,503
57634045,504
57644056,503
57654097,504
57664138,504
57674146,503
57684183,499
57694219,496
57704257,499
57714264,506
57724300,501
57734340,496
57744349,505
57754387,502
57764426,506
57774437,507
57784477,516
57794517,520
57804533,518
57814579,525
57824625,526
57834638,536
57844680,541
57854721,541
57864738,546
57874780,544
57884823,539
57894839,531
57904883,533
57914929,529
57924943,530
57934982,520
57945024,515
57955065,520
57965073,517
57975113,510
57985151,510
57995159,506
58005197,505
58015231,508
58025239,499
58035277,507
58045318,504
58055325,502
58065362,506
58075400,501
58085405,500
58095441,510
58105476,508
58115482,512
58125520,508
58135556,511
58145559,512
58155589,512
58165623,511
58175658,512
58185665,509
58195701,507
58205737,512
58215743,507
58225778,509
58235813,508
58245820,503
58255857,502
58265894,502
58275902,503
58285940,497
58295977,504
58305981,503
58316017,506
58326049,504
58336051,495
58346087,500
58356120,495
58366124,499
58376155,502
58386192,504
58396195,498
58406228,498
58416259,500
58426261,495
58436297,496
58446336,502
58456373,496
58466375,503
58476409,500
58486446,503
58496452,499
58506487,496
58516522,501
58526527,500
58536564,504
58546595,498
58556595,500
58566629,505
58576666,500
58586673,504
58596711,504
58606750,503
58616755,506
58626792,513
58636831,514
58646838,521
58656877,523
58666918,523
58676927,533
58686968,529
58697008,529
58707049,538
58717059,537
58727100,529
58737138,530
58747145,530
58757185,524
58767225,522
58777234,514
58787273,518
58797309,506
58807317,513
58817356,508
58827399,507
58837408,502
58847448,505
58857488,502
58867496,502
58877532,495
58887570,499
58897578,504
58907620,506
58917659,502
58927669,502
58937710,499
58947747,507
58957784,506
58967793,508
58977835,503
58987876,510
58997887,508
59007929,505
59017970,508
59027980,510
59038016,505
59048054,506
59058064,506
59068106,498
59078147,502
59088155,503
59098196,501
59108237,502
59118242,503
59128278,504
59138318,502
59148330,500
59158373,504
59168416,508
59178427,502
59188469,508
59198510,505
59208553,507
59218564,507
59228608,505
59238649,509
59248661,502
59258704,507
59268743,500
59278753,504
59288798,507
59298842,506
59308857,505
59318902,505
59328947,501
59338959,507
59349004,505
59359050,499
59369065,501
59379108,498
59389150,504
59399161,497
59409202,505
59419247,505
59429259,504
59439300,503
59449347,501
59459395,499
59469410,506
59479453,508
59489493,515
59499503,518
59509545,516
59519589,529
59529598,524
59539641,533
59549685,525
59559698,534
59569740,534
59579781,528
59589788,523
59599829,525
59609869,523
59619877,515
59629919,517
59639961,509
59649971,512
59660010,513
59670053,506
59680062,501
59690101,503
59700140,502
59710182,497
59720194,494
59730242,498
59740288,501
59750298,500
59760338,502
59770378,507
59780387,500
59790428,500
59800465,506
59810474,508
59820511,505
59830551,504
59840560,508
59850596,501
59860632,505
59870638,499
59880675,504
59890713,504
59900720,504
59910756,508
59920795,506
59930831,505
59940839,505
59950876,499
59960914,499
59970922,505
59980958,501
59990990,503
60000998,498
60011036,505
60021074,502
60031080,505
60041120,500
60051159,502
60061166,497
60071203,505
60081239,503
60091244,504
60101278,504
60111311,504
60121312,506
60131345,497
60141380,504
60151384,509
60161416,502
60171449,506
60181449,501
60191483,505
60201517,503
60211548,508
60221550,506
60231586,503
60241621,507
60251626,513
60261661,518
60271695,515
60281700,526
60291735,527
60301770,533
60311778,534
60321816,527
60331854,533
60341858,533
60351894,531
60361932,527
60371939,526
60381974,522
60392010,520
60402014,517
60412043,515
60422079,508
60432082,509
60442116,506
60452152,506
60462189,499
60472195,497
60482233,501
60492272,505
60502275,502
60512310,503
60522343,507
60532346,507
60542379,511
60552415,508
60562419,505
60572453,510
60582489,506
60592494,513
60602528,512
60612562,513
60622570,509
60632607,505
60642643,511
60652648,512
60662687,505
60672726,508
60682764,504
60692772,505
60702810,508
60712849,508
60722860,501
60732898,505
60742932,504
60752942,507
60762984,498
60773028,504
60783040,502
60793081,499
60803123,504
60813130,505
60823169,503
60833210,501
60843220,502
60853263,498
60863303,499
60873314,502
60883355,502
60893394,496
60903403,498
60913444,504
60923485,505
60933528,504
60943543,502
60953586,502
60963626,505
60973636,504
60983677,499
60993719,506
61003730,503
61013769,512
61023811,516
61033824,521
61043868,529
61053911,533
61063923,533
61073967,534
61084010,536
61094022,532
61104065,542
61114111,540
61124125,537
61134167,536
61144209,525
61154220,526
61164261,521
61174301,521
61184312,521
61194351,515
61204391,509
61214430,512
61224441,508
61234478,505
61244512,504
61254520,507
61264558,507
61274597,500
61284605,494
61294644,498
61304684,502
61314692,501
61324731,495
61334771,501
61344781,501
61354821,500
61364862,492
61374869,496
61384910,495
61394950,501
61404960,502
61415005,497
61425045,500
61435054,501
61445095,500
61455136,500
61465178,503
61475188,502
61485229,498
61495268,500
61505278,504
61515320,504
61525362,504
61535373,506
61545413,507
61555455,505
61565468,498
61575512,507
61585554,503
61595566,500
61605608,504
61615652,504
61625665,506
61635708,499
61645751,505
61655762,503
61665805,500
61675846,503
61685842,498
61695892,507
61705928,504
61715970,505
61725978,506
61736016,503
61746056,500
61756067,503
61766108,504
61776148,507
61786158,505
61796192,505
61806230,507
61816237,508
61826274,509
61836310,515
61846317,522
61856357,522
61866396,529
61876402,534
61886441,527
61896477,531
61906472,532
61916523,531
61926562,535
61936560,532
61946614,523
61956653,528
61966691,521
61976701,515
61986743,521
61996783,513
62006793,517
62016833,512
62026871,509
62036877,507
62046913,505
62056952,508
62066959,507
62076997,498
62087036,497
62097045,504
62107084,501
62117124,507
62127122,508
62137169,500
62147207,504
62157204,505
62167255,506
62177299,508
62187300,511
62197353,507
62207392,507
62217430,503
62227440,504
62237479,507
62247516,502
62257523,502
62267558,498
62277597,499
62287602,500
62297639,496
62307674,504
62317679,503
62327717,501
62337756,505
62347753,505
62357806,504
62367847,505
62377842,500
62387896,497
62397937,504
62407933,502
62417984,502
62428024,503
62438024,498
62448073,502
62458113,497
62468152,500
62478163,506
62488204,505
62498245,502
62508256,498
62518292,507
62528326,503
62538335,499
62548373,504
62558413,499
62568425,502
62578477,504
62588526,499
62598532,504
62608593,501
62618642,504
62628647,503
62638707,508
62648755,507
62658760,506
62668816,517
62678863,523
62688869,528
62698922,532
62708966,532
62719011,527
62729026,535
62739072,533
62749119,534
62759138,533
62769186,524
62779230,530
62789240,525
62799282,526
62809322,521
62819322,518
62829374,513
62839417,512
62849417,510
62859470,511
62869511,509
62879512,510
62889561,503
62899597,508
62909596,504
62919641,502
62929678,502
62939713,497
62949718,504
62959755,497
62969788,506
62979796,508
62989836,505
62999876,499
63009884,501
63019923,509
63029962,501
63039957,508
63050007,506
63060045,509
63070042,506
63080094,502
63090138,505
63100139,503
63110197,503
63120241,506
63130250,502
63140304,504
63150347,500
63160349,506
63170399,507
63180441,504
63190480,498
63200488,503
63210526,505
63220565,497
63230571,504
63240611,505
63250652,507
63260650,503
63270702,507
63280740,498
63290735,503
63300784,499
63310826,506
63320825,499
63330873,505
63340915,501
63350920,500
63360972,506
63371015,499
63381017,499
63391062,501
63401107,503
63411117,507
63421168,505
63431212,505
63441216,506
63451259,500
63461297,508
63471336,511
63481336,505
63491390,517
63501430,516
63511429,523
63521484,528
63531525,530
63541525,536
63551578,538
63561620,536
63571621,535
63581677,531
63591725,536
63601732,529
63611787,529
63621827,526
63631832,527
63641879,525
63651920,522
63661922,519
63671967,516
63682009,507
63692052,508
63702055,504
63712109,506
63722151,502
63732152,503
63742207,505
63752251,506
63762252,503
63772306,501
63782346,500
63792345,502
63802399,503
63812444,505
63822450,505
63832505,502
63842557,504
63852568,509
63862626,504
63872677,499
63882691,499
63892747,505
63902800,497
63912815,506
63922867,504
63932918,502
63942966,503
63952973,504
63963034,497
63973080,500
63983080,505
63993138,500
64003187,500
64013193,503
64023248,506
64033289,505
64043292,498
64053347,505
64063393,505
64073402,498
64083455,505
64093498,499
64103503,507
64113551,504
64123595,502
64133604,498
64143654,505
64153701,507
64163701,501
64173751,514
64183809,498
64193852,506
64203857,498
64213915,502
64223964,499
64233969,506
64244025,501
64254066,503
64264066,506
64274119,504
64284166,508
64294173,504
64304229,504
64314277,501
64324289,507
64334342,507
64344390,511
64354404,503
64364456,506
64374503,510
64384505,512
64394554,518
64404613,526
64414610,523
64424663,532
64434724,530
64444723,533
64454773,529
64464831,530
64474878,526
64484881,526
64494933,524
64504977,520
64514983,516
64525035,516
64535078,520
64545087,518
64555137,505
64565177,513
64575182,505
64585228,505
64595269,507
64605264,504
64615308,506
64625358,501
64635347,506
64645393,505
64655447,510
64665439,507
64675482,502
64685530,508
64695520,508
64705565,509
64715613,509
64725654,509
64735657,508
64745704,506
64755742,506
64765741,502
64775785,505
64785825,505
64795828,498
64805869,501
64815907,502
64825897,504
64835938,501
64845990,504
64855996,502
64866036,500
64876093,499
64886088,501
64896133,506
64906183,505
64916178,504
64926222,507
64936274,504
64946316,507
64956316,506
64966362,500
64976403,508
64986404,501
64996453,499
65006495,505
65016499,501
65026538,505
65036580,506
65046585,503
65056627,505
65066670,500
65076670,498
65086705,507
65096758,504
65106749,504
65116796,506
65126848,505
65136843,506
65146892,502
65156948,503
65166945,502
65176991,505
65187039,506
65197072,506
65207070,503
65217112,503
65227152,508
65237154,513
65247199,513
65257235,523
65267236,521
65277275,522
65287312,526
65297310,533
65307346,533
65317395,534
65327383,529
65337424,526
65347471,530
65357461,525
65367502,512
65377551,522
65387542,515
65397586,519
65407632,513
65417627,510
65427668,510
65437710,511
65447747,511
65457748,508
65467791,503
65477828,500
65487830,507
65497871,508
65507910,500
65517899,507
65527937,505
65537987,506
65547975,508
65558018,510
65568067,506
65578054,509
65588094,506
65598140,505
65608129,501
65618168,509
65628211,502
65638201,505
65648239,505
65658280,504
65668275,507
65678318,504
65688361,505
65698399,504
65708401,506
65718448,505
65728489,497
65738484,501
65748532,498
65758587,501
65768578,505
65778623,505
65788673,503
65798664,499
65808705,505
65818753,504
65828748,507
65838793,505
65848842,508
65858831,504
65868874,506
65878921,499
65888915,500
65898957,506
65908999,501
65918998,503
65929044,502
65939091,499
65949132,497
65959127,504
65969173,500
65979228,504
65989220,507
65999269,504
66009322,502
66019318,508
66029366,506
66039420,501
66049415,505
66059465,500
66069518,506
66079518,512
66089563,514
66099611,514
66109607,523
66119657,524
66129708,524
66139704,530
66149751,529
66159793,528
66169788,530
66179830,528
66189863,526
66199915,530
66209915,523
66219946,525
66229996,523
66239986,520
66250030,516
66260082,517
66270077,510
66280124,512
66290174,510
66300166,507
66310211,501
66320255,508
66330245,501
66340289,503
66350333,507
66360329,503
66370375,500
66380424,505
66390431,505
66400479,507
66410529,500
66420538,505
66430581,506
66440618,500
66450632,507
66460660,507
66470706,506
66480757,505
66490752,504
66500797,502
66510849,504
66520842,506
66530886,503
66540934,506
66550930,501
66560975,503
66571023,504
66581020,499
66591064,499
66601108,506
66611105,505
66621144,509
66631183,500
66641184,502
66651217,502
66661260,505
66671276,505
66681301,500
66691344,503
66701391,500
66711381,503
66721424,502
66731474,505
66741469,506
66751516,504
66761566,500
66771563,507
66781607,500
66791653,504
66801646,501
66811691,505
66821735,509
66831729,506
66841766,505
66851804,501
66861796,501
66871827,506
66881870,503
66891887,512
66901915,509
66911961,517
66921977,520
66932004,521
66942048,527
66952096,527
66962087,532
66972128,531
66982172,529
66992163,528
67002209,532
67012257,528
67022249,527
67032290,525
67042332,522
67052329,518
67062372,522
67072418,515
67082417,521
67092444,514
67102483,511
67112496,515
67122526,513
67132571,510
67142585,508
67152612,508
67162653,503
67172668,505
67182693,508
67192736,511
67202784,502
67212780,509
67222826,505
67232873,502
67242865,508
67252911,509
67262956,502
67272953,510
67282999,506
67293043,507
67303041,505
67313071,499
67323113,508
67333126,501
67343164,504
67353198,501
67363215,506
67373245,500
67383290,506
67393306,504
67403333,504
67413375,499
67423392,505
67433423,503
67443466,507
67453512,505
67463508,506
67473552,500
67483598,505
67493595,507
67503636,499
67513682,504
67523681,505
67533727,504
67543773,505
67553779,504
67563818,505
67573855,508
67583873,499
67593903,505
67603950,506
67613965,504
67623992,508
67634037,502
67644049,505
67654079,503
67664124,500
67674140,504
67684171,504
67694221,508
67704236,511
67714266,514
67724311,514
67734358,521
67744360,518
67754408,525
67764451,529
67774453,532
67784495,525
67794533,528
67804546,532
67814574,526
67824619,523
67834633,522
67844660,527
67854705,525
67864723,519
67874753,518
67884802,517
67894821,517
67904853,513
67914901,510
67924914,512
67934945,504
67944991,507
67955007,506
67965036,504
67975080,509
67985125,501
67995129,500
68005159,508
68015202,505
68025217,506
68035243,508
68045284,502
68055299,504
68065325,503
68075366,499
68085375,507
68095397,503
68105438,502
68115449,508
68125473,505
68135515,505
68145531,504
68155561,503
68165608,505
68175626,505
68185667,501
68195725,508
68205748,502
68215774,500
68225802,504
68235842,501
68245855,503
68255883,500
68265928,506
68275945,501
68285974,503
68296022,503
68306040,507
68316073,508
68326119,505
68336133,502
68346163,508
68356210,501
68366226,505
68376256,506
68386304,503
68396319,506
68406350,506
68416397,508
68426417,499
68436458,508
68446499,501
68456533,508
68466567,503
68476597,504
68486642,502
68496659,506
68506685,510
68516727,511
68526742,516
68536769,516
68546814,521
68556830,522
68566860,526
68576906,532
68586920,536
68596946,532
68606991,538
68617007,536
68627039,536
68637085,530
68647102,533
68657134,526
68667178,520
68677196,520
68687230,515
68697272,515
68707311,511
68717332,508
68727364,510
68737412,509
68747431,504
68757463,504
68767511,507
68777530,508
68787561,506
68797611,501
68807633,505
68817668,506
68827718,505
68837735,501
68847768,500
68857817,502
68867837,502
68877872,506
68887918,509
68897939,505
68907971,505
68918009,501
68928031,508
68938063,506
68948092,502
68958117,507
68968146,500
68978175,502
68988221,504
68998232,505
69008259,502
69018307,504
69028322,498
69038350,510
69048397,502
69058414,504
69068443,506
69078488,505
69088501,507
69098530,507
69108574,505
69118593,500
69128625,506
69138664,503
69148696,501
69158737,503
69168773,509
69178810,502
69188845,505
69198877,504
69208923,506
69218942,505
69228970,508
69239011,504
69249024,508
69259052,499
69269099,507
69279112,506
69289137,505
69299179,502
69309191,505
69319222,505
69329266,510
69339282,507
69349312,508
69359343,515
69369371,519
69379407,526
69389443,532
69399483,535
69409519,529
69419551,540
69429583,536
69439621,534
69449657,534
69459712,522
69469730,525
69479753,523
69489800,516
69499814,516
69509840,513
69519883,514
69529897,509
69539929,507
69549974,505
69559989,500
69570020,493
69580054,497
69590078,491
69600109,495
69610135,502
69620163,499
69630191,500
69640216,498
69650245,501
69660273,503
69670306,505
69680343,501
69690380,498
69700418,504
69710466,506
69720489,499
69730523,505
69740574,507
69750593,503
69760631,503
69770685,504
69780708,507
69790746,507
69800785,501
69810817,507
69820850,502
69830879,499
69840907,506
69850938,498
69860967,504
69870999,503
69881032,505
69891061,506
69901092,507
69911123,498
69921152,507
69931180,504
69941205,503
69951230,503
69961273,498
69971288,506
69981317,504
69991362,504
70001376,502
70011407,508
70021452,505
70031469,504
70041501,506
70051538,504
70061558,505
70071587,506
70081612,505
70091638,509
70101667,509
70111694,509
70121724,508
70131753,516
70141781,521
70151806,527
70161834,530
70171861,525
70181886,532
70191914,532
70201941,534
70211982,533
70221993,527
70232018,526
70242061,527
70252075,521
70262105,516
70272140,515
70282155,521
70292185,513
70302213,517
70312243,517
70322269,507
70332297,509
70342328,512
70352357,504
70362385,502
70372416,507
70382447,504
70392474,507
70402502,506
70412531,505
70422561,499
70432589,508
70442616,510
70452646,501
70462669,504
70472698,504
70482726,510
70492755,502
70502778,508
70512805,504
70522829,506
70532855,510
70542882,510
70552907,510
70562936,502
70572966,510
70582997,503
70593027,500
70603058,507
70613084,502
70623113,502
70633147,499
70643178,497
70653210,507
70663241,505
70673272,503
70683303,505
70693336,503
70703367,503
70713394,503
70723422,505
70733453,504
70743481,504
70753510,497
70763543,497
70773572,507
70783602,506
70793635,502
70803666,503
70813696,504
70823726,503
70833755,504
70843784,499
70853815,507
70863845,507
70873875,508
70883906,509
70893935,510
70903962,516
70913990,516
70924019,526
70934047,525
70944074,530
70954100,531
70964127,532
70974152,528
70984176,528
70994198,532
71004226,527
71014256,523
71024289,524
71034326,524
71044362,517
71054397,519
71064433,512
71074470,515
71084505,512
71094542,508
71104576,510
71114613,503
71124651,502
71134689,499
71144717,498
71154744,503
71164771,503
71174800,504
71184832,495
71194863,496
71204885,504
71214907,504
71224933,500
71234964,502
71244991,498
71255023,499
71265056,502
71275088,504
71285119,499
71295152,506
71305182,507
71315215,504
71325247,504
71335280,503
71345313,506
71355348,503
71365379,504
71375409,507
71385440,502
71395470,503
71405501,502
71415531,504
71425560,497
71435586,503
71445605,505
71455630,505
71465655,502
71475681,507
71485708,504
71495733,507
71505757,504
71515783,507
71525809,505
71535836,504
71545864,504
71555892,505
71565922,509
71575950,508
71585978,505
71596005,502
71606035,507
71616065,504
71626093,499
71636121,505
71646147,498
71656174,508
71666205,501
71676238,508
71686272,508
71696305,511
71706338,514
71716367,515
71726397,526
71736426,531
71746454,533
71756484,528
71766518,542
71776549,540
71786575,535
71796605,533
71806635,535
71816662,535
71826693,530
71836722,530
71846748,525
71856775,526
71866805,519
71876834,511
71886862,516
71896891,507
71906920,501
71916950,503
71926979,502
71937009,505
71947039,499
71957072,494
71967101,494
71977134,498
71987165,495
71997198,504
72007230,504
72017259,497
72027288,503
72037324,504
72047363,507
72057403,506
72067434,504
72077464,505
72087495,505
72097526,503
72107555,508
72117582,506
72127608,504
72137636,508
72147664,499
72157689,506
72167715,506
72177738,500
72187762,499
72197791,502
72207819,499
72217843,496
72227868,503
72237891,500
72247914,500
72257939,499
72267962,503
72277983,503
72288005,501
72298034,506
72308064,501
72318094,497
72328125,504
72338153,502
72348183,503
72358217,505
72368251,502
72378285,505
72388315,509
72398347,504
72408377,500
72418411,507
72428443,500
72438472,505
72448506,504
72458536,504
72468566,499
72478595,505
72488629,499
72498658,507
72508684,505
72518712,503
72528738,509
72538764,504
72548792,504
72558819,514
72568845,522
72578868,519
72588898,528
72598928,527
72608952,530
72618978,535
72629002,525
72639029,532
72649058,531
72659083,526
72669113,523
72679144,518
72689168,520
72699203,513
72709241,512
72719277,515
72729310,508
72739344,511
72749377,507
72759403,508
72769433,504
72779465,498
72789493,502
72799522,505
72809553,506
72819584,504
72829613,506
72839640,507
72849668,499
72859700,501
72869732,506
72879760,503
72889790,504
72899814,508
72909835,505
72919869,510
72929900,499
72939924,503
72949956,508
72959983,499
72970009,508
72980034,504
72990060,502
73000085,504
73010110,505
73020139,497
73030167,497
73040192,502
73050220,506
73060247,504
73070275,500
73080301,506
73090328,504
73100353,499
73110381,502
73120408,504
73130431,502
73140458,505
73150485,500
73160506,504
73170535,501
73180567,505
73190595,502
73200632,509
73210666,504
73220701,505
73230730,506
73240758,501
73250784,505
73260807,508
73270831,505
73280857,508
73290891,505
73300926,504
73310960,505
73320990,500
73331022,505
73341056,501
73351089,500
73361132,501
73371169,511
73381202,512
73391235,514
73401265,516
73411288,518
73421322,519
73431350,525
73441372,526
73451404,530
73461432,524
73471452,528
73481489,521
73491516,523
73501546,523
73511572,520
73521601,512
73531633,516
73541658,508
73551683,511
73561709,507
73571736,504
73581766,505
73591796,504
73601819,502
73611848,503
73621876,496
73631898,504
73641933,498
73651960,503
73661978,497
73672016,504
73682045,506
73692069,501
73702109,503
73712139,505
73722157,505
73732195,499
73742224,502
73752252,503
73762282,500
73772310,507
73782339,508
73792366,506
73802396,504
73812427,503
73822455,505
73832487,506
73842517,499
73852545,505
73862577,508
73872608,502
73882634,507
73892670,503
73902698,507
73912721,507
73922758,505
73932790,500
73942814,503
73952853,509
73962884,505
73972914,504
73982945,504
73992977,509
74003008,503
74013035,504
74023065,508
74033096,502
74043120,501
74053149,504
74063177,507
74073199,502
74083229,509
74093250,503
74103266,509
74113298,508
74123323,501
74133344,507
74143377,508
74153404,509
74163430,506
74173471,511
74183503,514
74193522,522
74203559,523
74213588,518
74223618,525
74233641,520
74243670,519
74253698,521
74263723,521
74273758,517
74283785,516
74293810,520
74303845,511
74313875,511
74323895,514
74333929,507
74343958,508
74353978,509
74364012,501
74374040,508
74384061,507
74394099,505
74404126,503
74414142,501
74424179,504
74434207,503
74444224,500
74454261,505
74464288,502
74474303,507
74484340,509
74494367,503
74504390,511
74514408,507
74524438,508
74534461,501
74544482,503
74554516,507
74564542,501
74574560,508
74584593,506
74594618,505
74604636,499
74614671,507
74624700,506
74634716,501
74644750,500
74654774,505
74664790,507
74674826,505
74684854,504
74694868,505
74704901,507
74714930,499
74724956,506
74734974,504
74745001,506
74755023,500
74765042,504
74775074,507
74785099,502
74795117,507
74805152,506
74815177,505
74825194,508
74835228,506
74845250,505
74855265,501
74865301,507
74875329,507
74885347,503
74895377,509
74905401,514
74915411,516
74925445,519
74935473,522
74945484,524
74955522,528
74965554,529
74975571,527
74985608,531
74995642,528
75005671,529
75015691,520
75025725,517
75035753,518
75045770,521
75055806,514
75065837,512
75075858,512
75085898,509
75095927,507
75105947,509
75115989,504
75126021,507
75136040,504
75146082,505
75156116,504
75166134,506
75176171,501
75186202,503
75196212,502
75206247,499
75216277,503
75226289,508
75236323,502
75246352,506
75256381,506
75266404,510
75276436,501
75286457,508
75296471,507
75306507,503
75316534,504
75326551,505
75336587,503
75346613,503
75356630,506
75366665,506
75376696,506
75386713,508
75396753,509
75406786,501
75416802,506
75426840,501
75436872,507
75446885,499
75456924,507
75466954,509
75476966,508
75487002,500
75497036,507
75507064,500
75517086,506
75527123,502
75537153,505
75547170,506
75557208,503
75567238,506
75577254,509
75587288,506
75597315,501
75607326,501
75617358,510
75627384,512
75637397,509
75647434,518
75657467,522
75667480,525
75677516,523
75687550,530
75697560,524
75707598,533
75717631,528
75727659,529
75737679,528
75747716,527
75757739,524
75767755,519
75777792,521
75787818,513
75797833,513
75807870,515
75817896,513
75827906,516
75837942,507
75847969,510
75857980,505
75868017,507
75878050,505
75888065,507
75898107,507
75908144,497
75918158,506
75928199,501
75938233,504
75948243,506
75958281,502
75968320,503
75978334,509
75988374,499
75998412,508
76008442,503
76018460,504
76028499,504
76038526,505
76048539,501
76058579,504
76068613,504
76078632,508
76088673,507
76098707,501
76108722,504
76118762,506
76128794,503
76138807,505
76148848,502
76158883,505
76168900,505
76178945,507
76188987,505
76199000,506
76209040,507
76219081,505
76229095,506
76239135,505
76249179,500
76259214,502
76269233,506
76279272,507
76289304,501
76299323,501
76309366,507
76319403,505
76329423,505
76339468,507
76349506,503
76359525,507
76369566,500
76379603,508
76389612,501
76399650,507
76409687,510
76419698,516
76429736,517
76439776,523
76449790,525
76459835,528
76469877,527
76479912,528
76489928,529
76499966,524
76509998,528
76520014,523
76530053,518
76540083,520
76550096,513
76560136,516
76570169,515
76580181,509
76590221,513
76600257,505
76610271,507
76620314,510
76630352,503
76640364,508
76650408,507
76660448,507
76670457,505
76680496,505
76690534,508
76700542,506
76710580,507
76720619,506
76730626,501
76740665,507
76750705,508
76760737,506
76770749,502
76780789,510
76790823,503
76800838,499
76810881,505
76820915,508
76830931,500
76840972,504
76851010,499
76861024,500
76871066,501
76881107,502
76891120,509
76901161,502
76911204,503
76921215,508
76931256,504
76941295,508
76951305,505
76961342,505
76971379,501
76981409,502
76991421,500
77001459,506
77011491,504
77021502,508
77031538,508
77041571,508
77051582,506
77061620,507
77071656,507
77081666,507
77091707,510
77101744,506
77111753,500
77121791,503
77131828,504
77141835,502
77151873,507
77161913,507
77171920,504
77181960,504
77192001,506
77202011,516
77212052,521
77222093,525
77232103,526
77242144,522
77252184,522
77262215,526
77272224,520
77282261,524
77292296,524
77302307,523
77312344,521
77322377,519
77332384,516
77342423,514
77352460,511
77362466,512
77372503,504
77382539,510
77392545,507
77402578,505
77412615,504
77422621,504
77432660,508
77442701,506
77452716,501
77462758,506
77472795,507
77482804,504
77492841,506
77502879,502
77512914,502
77522926,505
77532965,505
77543000,508
77553007,508
77563045,510
77573082,507
77583088,503
77593123,500
77603156,505
77613160,501
77623199,505
77633233,497
77643240,502
77653278,502
77663313,505
77673316,507
77683350,505
77693382,505
77703383,497
77713414,506
77723450,508
77733453,505
77743487,508
77753525,505
77763561,502
77773570,503
77783608,509
77793653,504
77803670,503
77813713,501
77823755,501
77833764,501
77843804,502
77853844,507
77863852,507
77873891,507
77883930,501
77893936,507
77903975,503
77914016,503
77924027,510
77934067,513
77944106,513
77954114,513
77964157,513
77974199,518
77984235,521
77994245,519
78004283,522
78014323,524
78024334,520
78034375,520
78044415,521
78054424,519
78064464,513
78074505,517
78084516,518
78094557,511
78104597,512
78114605,508
78124644,514
78134678,511
78144685,510
78154724,508
78164762,505
78174770,508
78184810,508
78194850,501
78204858,500
78214895,505
78224929,507
78234936,507
78244972,506
78255005,511
78265040,503
78275044,508
78285080,507
78295116,507
78305123,502
78315162,503
78325197,508
78335204,504
78345242,509
78355279,508
78365286,506
78375320,508
78385355,508
78395359,506
78405393,504
78415427,505
78425431,507
78435467,504
78445505,506
78455515,499
78465553,502
78475593,508
78485602,505
78495641,499
78505681,507
78515720,508
78525729,506
78535766,504
78545803,506
78555809,508
78565846,501
78575881,509
78585887,504
78595927,506
78605963,501
78615970,507
78626007,502
78636043,505
78646050,507
78656086,504
78666122,505
78676124,501
78686155,510
78696188,510
78706190,513
78716226,510
78726264,518
78736271,522
78746308,526
78756347,523
78766382,519
78776388,527
78786423,527
78796458,521
78806463,522
78816498,522
78826530,520
78836533,515
78846572,515
78856613,508
78866619,512
78876657,512
78886696,509
78896702,503
78906739,502
78916772,505
78926779,508
78936816,504
78946855,497
78956867,499
78966906,503
78976944,501
78986953,504
78996994,506
79007036,506
79017075,506
79027081,507
79037119,505
79047158,504
79057165,510
79067204,505
79077241,506
79087247,499
79097284,509
79107323,502
79117329,503
79127366,506
79137403,508
79147411,500
79157450,504
79167490,510
79177496,505
79187535,505
79197574,500
79207584,503
79217622,506
79227663,499
79237673,504
79247711,499
79257750,503
79267793,505
79277801,508
79287839,502
79297878,508
79307891,506
79317934,507
79327976,503
79337986,508
79348025,509
79358063,508
79368068,509
79378102,500
79388142,506
79398150,506
79408187,508
79418222,504
79428234,505
79438276,509
79448319,505
79458335,511
79468381,508
79478425,512
79488440,517
79498483,511
79508525,518
79518567,518
79528577,518
79538613,522
79548652,523
79558664,522
79568703,522
79578745,518
79588756,514
79598794,510
79608830,512
79618843,512
79628886,505
79638923,513
79648932,507
79658975,509
79669019,506
79679033,509
79689076,508
79699118,508
79709128,508
79719168,506
79729210,508
79739253,507
79749263,504
79759306,508
79769350,505
79779363,510
79789405,505
79799450,511
79809462,500
79819504,508
79829547,509
79839561,505
79849602,507
79859646,503
79869656,508
79879695,504
79889735,502
79899742,508
79909784,507
79919828,508
79929840,509
79939881,504
79949927,510
79959941,509
79969982,510
79980022,505
79990061,504
80000072,503
80010113,502
80020152,505
80030162,508
80040201,510
80050241,508
80060252,506
80070292,506
80080333,509
80090343,505
80100385,502
80110428,508
80120438,510
80130481,508
80140521,501
80150527,506
80160569,508
80170608,504
80180622,510
80190663,509
80200705,505
80210715,509
80220754,506
80230795,510
80240835,513
80250848,515
80260895,518
80270942,517
80280954,518
80290994,517
80301033,516
80311041,518
80321078,517
80331115,512
80341125,516
80351165,511
80361212,507
80371227,512
80381273,512
80391316,510
80401329,508
80411373,505
80421418,506
80431429,510
80441469,507
80451509,505
80461514,505
80471551,506
80481589,506
80491597,504
80501638,512
80511679,502
80521720,503
80531730,505
80541772,506
80551812,508
80561823,506
80571863,508
80581902,511
80591911,510
80601949,502
80611989,506
80621997,508
80632037,509
80642078,509
80652088,508
80662129,503
80672169,509
80682180,507
80692223,508
80702265,508
80712275,508
80722317,507
80732358,505
80742398,510
80752411,502
80762453,505
80772496,510
80782505,509
80792543,510
80802581,507
80812588,506
80822629,505
80832668,505
80842677,503
80852714,510
80862748,503
80872756,508
80882789,508
80892826,505
80902835,510
80912871,505
80922907,509
80932913,507
80942949,509
80952987,503
80962996,503
80973039,508
80983078,507
80993087,502
81003127,510
81013165,510
81023204,509
81033215,511
81043253,512
81053291,514
81063302,515
81073342,516
81083382,518
81093387,516
81103426,518
81113462,514
81123467,515
81133506,512
81143542,510
81153548,512
81163584,506
81173619,504
81183625,511
81193660,502
81203693,509
81213699,505
81223733,507
81233765,503
81243770,505
81253807,510
81263843,505
81273880,510
81283884,507
81293918,506
81303950,504
81313953,508
81323983,508
81334014,505
81344014,509
81354043,510
81364077,508
81374083,505
81384120,507
81394161,503
81404172,507
81414209,508
81424246,509
81434255,510
81444296,509
81454336,509
81464344,509
81474380,506
81484417,508
81494456,506
81504463,510
81514501,510
81524540,508
81534551,511
81544589,508
81554628,506
81564635,521
81574671,506
81584704,506
81594707,511
81604747,511
81614787,508
81624795,511
81634832,509
81644868,512
81654873,509
81664911,508
81674952,502
81684962,507
81695002,511
81705041,506
81715049,502
81725089,510
81735126,510
81745164,507
81755169,519
81765206,511
81775242,512
81785247,520
81795291,512
81805337,512
81815351,512
81825394,514
81835438,514
81845450,516
81855494,513
81865532,510
81875538,514
81885573,515
81895606,509
81905609,512
81915644,506
81925679,507
81935685,508
81945723,504
81955758,509
81965767,508
81975806,507
81985845,503
81995850,508
82005884,508
82015922,506
82025961,505
82035966,510
82046000,510
82056039,508
82066044,507
82076082,508
82086118,510
82096128,508
82106167,509
82116203,509
82126210,510
82136245,510
82146284,502
82156290,510
82166332,509
82176371,509
82186381,505
82196423,502
82206464,504
82216472,501
82226508,507
82236540,509
82246575,508
82256583,504
82266625,509
82276666,507
82286674,501
82296713,509
82306757,508
82316765,504
82326796,510
82336827,509
82346830,505
82356868,503
82366906,502
82376913,511
82386950,510
82396986,507
82406992,508
82417024,506
82427058,511
82437066,515
82447099,509
82457131,515
82467135,521
82477168,524
82487199,527
82497203,527
82507235,523
82517269,528
82527302,520
82537303,526
82547332,523
82557361,523
82567359,521
82577387,516
82587420,515
82597425,519
82607457,513
82617488,512
82627489,515
82637517,512
82647543,511
82657544,510
82667576,508
82677605,507
82687611,510
82697649,510
82707682,506
82717683,510
82727717,507
82737749,506
82747750,506
82757783,508
82767819,507
82777855,507
82787862,505
82797898,509
82807934,502
82817942,512
82827977,507
82838015,506
82848025,501
82858065,505
82868104,506
82878115,503
82888154,509
82898194,507
82908200,506
82918239,502
82928278,509
82938288,508
82948327,506
82958364,510
82968369,506
82978408,506
82988446,504
82998488,505
83008496,509
83018532,507
83028571,504
83038579,509
83048617,509
83058655,502
83068662,509
83078702,503
83088740,496
83098748,508
83108788,509
83118826,507
83128832,503
83138869,515
83148903,513
83158906,518
83168937,523
83178967,519
83188967,522
83198999,525
83209032,525
83219043,525
83229089,524
83239131,521
83249147,525
83259189,519
83269235,523
83279277,523
83289284,516
83299321,519
83309353,516
83319358,515
83329393,513
83339429,513
83349435,505
83359474,509
83369508,505
83379507,511
83389546,506
83399583,502
83409588,510
83419620,502
83429653,507
83439657,505
83449695,504
83459728,508
83469731,507
83479764,511
83489796,512
83499798,505
83509834,505
83519868,505
83529903,504
83539908,503
83549943,507
83559974,502
83569975,503
83580008,508
83590042,510
83600046,503
83610081,500
83620115,499
83630120,510
83640160,505
83650201,508
83660213,506
83670254,506
83680295,507
83690306,504
83700350,502
83710394,505
83720406,505
83730445,504
83740486,504
83750529,500
83760542,504
83770585,500
83780625,506
83790631,505
83800673,505
83810714,508
83820721,508
83830762,503
83840803,511
83850815,508
83860859,507
83870903,505
83880919,509
83890966,504
83901013,513
83911029,514
83921080,521
83931127,521
83941142,527
83951185,524
83961230,530
83971244,533
83981289,532
83991336,533
84001346,530
84011386,522
84021429,523
84031471,526
84041481,518
84051523,527
84061566,514
84071575,513
84081617,518
84091659,516
84101673,508
84111718,512
84121758,505
84131768,505
84141810,504
84151846,504
84161858,501
84171901,505
84181949,508
84191964,505
84202010,501
84212055,504
84222069,502
84232116,502
84242163,507
84252207,511
84262222,509
84272268,507
84282310,511
84292318,508
84302358,509
84312401,508
84322413,501
84332456,509
84342497,506
84352506,508
84362544,509
84372581,506
84382586,505
84392626,507
84402670,508
84412680,506
84422721,502
84432761,507
84442770,506
84452809,502
84462850,505
84472861,504
84482901,502
84492941,508
84502952,508
84512994,505
84523036,508
84533077,505
84543090,502
84553133,508
84563176,505
84573188,500
84583229,509
84593267,505
84603277,507
84613317,508
84623353,502
84633356,503
84643391,511
84653431,514
84663444,516
84673488,516
84683533,523
84693540,528
84703576,525
84713613,535
84723620,532
84733657,534
84743694,532
84753699,529
84763735,533
84773772,524
84783811,530
84793818,520
84803858,525
84813894,526
84823899,519
84833929,520
84843962,512
84853967,515
84864005,514
84874042,509
84884052,507
84894091,510
84904130,506
84914138,506
84924172,501
84934206,503
84944210,504
84954245,507
84964279,505
84974285,503
84984319,502
84994349,506
85004350,508
85014387,509
85024424,500
85034458,508
85044462,503
85054499,499
85064533,507
85074538,505
85084573,499
85094609,499
85104610,500
85114642,504
85124676,507
85134679,505
85144715,509
85154753,501
85164761,505
85174799,507
85184836,499
85194842,500
85204878,504
85214917,505
85224923,507
85234962,498
85245002,505
85255013,503
85265051,505
85275090,502
85285123,503
85295125,506
85305161,504
85315196,501
85325203,506
85335239,503
85345275,508
85355281,503
85365318,502
85375354,506
85385359,509
85395393,505
85405426,505
85415430,510
85425468,508
85435502,513
85445508,519
85455544,517
85465582,523
85475588,527
85485630,525
85495665,528
85505668,538
85515704,538
85525742,530
85535779,528
85545784,532
85555819,533
85565856,523
85575860,524
85585895,525
85595931,525
85605937,516
85615974,517
85626012,515
85636016,508
85646054,509
85656093,505
85666100,501
85676136,505
85686171,506
85696177,496
85706211,500
85716246,498
85726251,502
85736289,505
85746328,501
85756363,505
85766369,505
85776404,507
85786441,505
85796446,501
85806485,499
85816526,503
85826541,503
85836582,506
85846623,501
85856631,502
85866668,504
85876706,508
85886715,502
85896752,499
85906790,505
85916795,504
85926834,505
85936875,504
85946885,500
85956923,500
85966963,504
85976969,501
85987009,502
85997047,505
86007053,505
86017090,504
86027125,504
86037162,502
86047168,499
86057201,505
86067233,504
86077235,508
86087268,505
86097304,505
86107306,505
86117338,500
86127371,504
86137374,506
86147409,503
86157445,506
86167446,501
86177481,502
86187514,504
86197518,499
86207553,506
86217587,510
86227592,509
86237627,509
86247662,520
86257667,520
86267703,522
86277739,528
86287775,531
86297780,533
86307817,526
86317854,525
86327857,529
86337890,526
86347922,527
86357923,527
86367960,523
86377996,521
86388002,513
86398038,515
86408075,512
86418081,509
86428120,507
86438158,506
86448165,510
86458203,508
86468238,507
86478243,506
86488281,498
86498322,506
86508330,504
86518366,506
86528405,506
86538443,500
86548449,503
86558483,505
86568522,505
86578529,499
86588565,505
86598603,503
86608607,502
86618643,507
86628679,506
86638685,504
86648722,503
86658758,508
86668763,505
86678795,503
86688829,497
86698834,505
86708869,501
86718904,504
86728909,508
86738943,506
86748978,506
86759017,501
86769023,504
86779061,504
86789094,497
86799099,504
86809140,503
86819179,503
86829187,504
86839226,506
86849265,505
86859271,504
86869313,503
86879354,499
86889368,504
86899410,505
86909448,504
86919455,501
86929494,499
86939531,504
86949537,509
86959574,504
86969612,505
86979619,499
86989659,503
86999696,508
87009701,506
87019734,506
87029769,500
87039807,504
87049808,504
87059843,511
87069879,513
87079885,516
87089921,515
87099957,521
87109961,527
87119995,522
87130032,532
87140041,529
87150082,526
87160125,530
87170133,529
87180165,520
87190197,522
87200199,522
87210235,523
87220271,518
87230277,519
87240311,518
87250349,508
87260351,510
87270384,511
87280423,509
87290459,507
87300463,499
87310499,503
87320537,498
87330540,505
87340574,503
87350606,501
87360608,501
87370641,501
87380675,507
87390676,501
87400707,502
87410739,499
87420743,512
87430772,508
87440804,505
87450806,505
87460838,502
87470870,504
87480871,509
87490903,501
87500935,503
87510969,500
87520975,505
87531013,506
87541051,506
87551055,505
87561093,504
87571125,504
87581129,503
87591166,497
87601203,504
87611212,505
87621248,499
87631284,506
87641289,504
87651324,502
87661357,502
87671362,502
87681399,502
87691435,501
87701442,506
87711477,502
87721513,508
87731519,499
87741556,505
87751593,508
87761627,508
87771634,502
87781672,508
87791712,506
87801717,499
87811753,507
87821791,506
87831796,509
87841832,506
87851866,510
87861867,503
87871899,504
87881932,514
87891938,512
87901973,516
87912010,519
87922012,526
87932042,528
87942073,522
87952075,530
87962109,523
87972142,532
87982149,528
87992182,527
88002215,523
88012250,525
88022253,516
88032290,521
88042325,517
88052331,516
88062368,516
88072404,510
88082409,506
88092441,504
88102474,505
88112481,504
88122520,509
88132561,508
88142574,508
88152614,508
88162650,512
88172653,509
88182690,508
88192728,509
88202735,510
88212769,506
88222803,512
88232811,512
88242851,512
88252892,506
88262905,508
88272949,506
88282991,511
88293031,511
88303042,504
88313081,502
88323119,503
88333124,506
88343163,503
88353200,506
88363206,502
88373242,502
88383278,499
88393283,498
88403317,497
88413351,504
88423355,506
88433387,502
88443422,504
88453429,507
88463467,508
88473504,506
88483513,504
88493553,497
88503590,504
88513629,501
88523637,506
88533679,500
88543722,506
88553734,507
88563774,506
88573814,504
88583823,506
88593864,506
88603906,506
88613921,500
88623966,503
88634007,507
88644020,508
88654062,510
88664098,505
88674109,509
88684150,512
88694191,524
88704201,522
88714239,529
88724280,530
88734289,536
88744327,535
88754364,537
88764396,536
88774399,535
88784435,528
88794471,534
88804480,529
88814519,526
88824555,526
88834561,521
88844595,523
88854630,520
88864636,513
88874670,517
88884708,513
88894715,512
88904750,507
88914788,507
88924797,499
88934835,503
88944873,501
88954879,505
88964917,504
88974953,499
88984959,504
88994994,501
89005028,505
89015033,503
89025072,503
89035111,506
89045150,505
89055155,502
89065193,502
89075233,501
89085241,497
89095280,501
89105319,499
89115326,500
89125361,499
89135398,506
89145404,508
89155440,504
89165476,503
89175483,503
89185518,504
89195556,503
89205563,503
89215600,498
89225636,501
89235641,504
89245675,505
89255708,501
89265742,501
89275744,499
89285778,506
89295817,497
89305823,501
89315861,501
89325897,507
89335904,499
89345941,504
89355978,508
89365982,505
89376018,505
89386053,506
89396057,499
89406092,506
89416126,499
89426130,502
89436163,506
89446197,506
89456204,508
89466243,504
89476283,504
89486293,508
89496327,508
89506367,504
89516408,506
89526418,509
89536458,513
89546495,518
89556504,518
89566544,523
89576580,529
89586588,529
89596627,535
89606664,530
89616674,532
89626714,533
89636754,533
89646768,526
89656812,529
89666854,526
89676867,520
89686910,521
89696953,522
89706961,518
89717000,518
89727037,515
89737046,506
89747085,508
89757123,509
89767134,504
89777175,502
89787214,505
89797253,504
89807265,502
89817310,502
89827350,503
89837361,502
89847404,503
89857445,502
89867460,506
89877504,497
89887548,505
89897560,504
89907600,502
89917643,506
89927653,505
89937694,507
89947737,508
89957748,503
89967788,500
89977829,501
89987839,500
89997881,501
90007923,496
90017932,506
90027969,500
90038006,497
90048045,502
90058055,504
90068096,504
90078136,506
90088147,503
90098189,504
90108227,504
90118233,499
90128273,506
90138315,507
90148330,505
90158369,502
90168409,506
90178420,499
90188459,505
90198499,505
90208508,499
90218546,501
90228588,501
90238595,507
90248634,509
90258670,504
90268709,503
90278716,504
90288754,508
90298793,501
90308801,502
90318843,506
90328886,503
90338899,509
90348941,507
90358986,508
90369000,503
90379046,510
90389089,502
90399104,510
90409148,516
90419193,520
90429213,525
90439262,522
90449313,528
90459333,528
90469382,529
90479431,530
90489443,535
90499485,531
90509526,529
90519566,527
90529575,525
90539610,526
90549650,517
90559662,522
90569700,518
90579740,518
90589750,515
90599788,515
90609826,510
90619837,505
90629876,501
90639915,500
90649928,501
90659969,504
90670007,506
90680018,503
90690056,499
90700093,498
90710101,504
90720142,499
90730182,499
90740191,508
90750231,507
90760269,507
90770309,505
90780317,506
90790357,503
90800400,504
90810410,503
90820450,506
90830489,507
90840500,505
90850539,505
90860581,504
90870593,504
90880637,499
90890679,503
90900690,503
90910732,506
90920771,501
90930781,505
90940818,504
90950854,508
90960867,506
90970911,504
90980954,498
90990956,504
91001009,504
91011047,499
91021048,499
91031096,507
91041136,506
91051174,504
91061183,502
91071221,502
91081258,507
91091266,502
91101303,502
91111343,503
91121352,507
91131392,499
91141430,508
91151439,507
91161476,504
91171518,505
91181528,506
91191567,502
91201606,502
91211604,502
91221654,502
91231692,503
91241689,503
91251737,506
91261774,502
91271775,511
91281823,512
91291858,520
91301895,522
91311901,525
91321937,528
91331973,527
91341975,538
91352009,529
91362042,534
91372044,534
91382076,533
91392109,530
91402112,532
91412144,525
91422178,521
91432173,525
91442222,524
91452260,521
91462255,520
91472300,520
91482334,508
91492330,512
91502375,509
91512408,504
91522402,510
91532446,506
91542482,503
91552517,497
91562524,503
91572559,503
91582592,503
91592592,504
91602624,505
91612657,507
91622660,502
91632690,505
91642724,499
91652727,508
91662763,506
91672798,500
91682792,500
91692839,505
91702875,506
91712872,507
91722916,499
91732950,506
91742946,501
91752988,505
91763023,501
91773058,501
91783060,501
91793093,501
91803127,506
91813134,506
91823169,505
91833199,503
91843202,498
91853233,505
91863265,503
91873267,503
91883300,503
91893336,503
91903330,500
91913376,501
91923408,503
91933402,506
91943448,506
91953482,505
91963478,506
91973519,505
91983551,499
91993549,502
92003592,502
92013627,501
92023624,505
92033660,506
92043690,505
92053722,506
92063725,504
92073757,506
92083789,501
92093791,501
92103824,505
92113858,501
92123851,503
92133897,499
92143932,507
92153927,505
92163973,503
92174008,504
92184003,509
92194046,514
92204081,520
92214077,520
92224117,527
92234149,527
92244145,521
92254182,531
92264216,531
92274219,527
92284264,529
92294301,528
92304338,524
92314348,525
92324390,526
92334430,522
92344425,520
92354476,519
92364517,515
92374515,516
92384563,504
92394603,508
92404601,509
92414647,507
92424680,505
92434678,503
92444724,500
92454760,506
92464757,502
92474796,501
92484829,505
92494829,507
92504865,508
92514892,505
92524923,506
92534927,504
92544962,508
92554997,499
92564990,505
92575035,505
92585072,503
92595068,499
92605116,503
92615152,508
92625148,507
92635197,499
92645235,505
92655238,505
92665285,502
92675324,503
92685325,499
92695371,508
92705408,498
92715411,499
92725455,504
92735492,506
92745496,502
92755539,506
92765576,506
92775579,506
92785605,503
92795651,503
92805684,503
92815686,506
92825736,504
92835778,505
92845776,506
92855822,505
92865858,509
92875860,505
92885905,501
92895941,499
92905941,503
92915981,507
92926017,506
92936019,504
92946061,508
92956093,505
92966094,502
92976133,506
92986176,506
92996189,507
93006223,503
93016281,507
93026296,504
93036335,501
93046389,503
93056430,503
93066437,507
93076491,505
93086535,501
93096547,507
93106602,506
93116647,510
93126654,506
93136705,514
93146751,519
93156761,520
93166811,518
93176855,527
93186868,529
93196918,524
93206964,532
93216975,526
93227022,521
93237063,528
93247070,527
93257096,525
93267145,519
93277154,523
93287185,512
93297228,515
93307263,511
93317262,514
93327310,512
93337347,511
93347349,504
93357396,500
93367434,507
93377438,506
93387482,506
93397520,509
93407525,507
93417564,501
93427599,502
93437603,500
93447644,506
93457681,505
93467689,505
93477717,507
93487766,507
93497772,511
93507802,510
93517849,505
93527857,509
93537885,510
93547931,510
93557967,498
93567964,504
93578010,506
93588046,509
93598047,506
93608089,500
93618123,508
93628123,503
93638165,508
93648201,501
93658205,500
93668246,504
93678284,508
93688290,502
93698317,506
93708364,506
93718366,507
93728389,506
93738429,499
93748433,503
93758456,505
93768497,502
93778501,508
93788530,499
93798574,503
93808609,508
93818606,505
93828647,509
93838682,503
93848682,506
93858722,503
93868758,507
93878762,503
93888803,503
93898842,508
93908849,508
93918880,507
93928935,507
93938942,509
93948966,502
93959007,505
93969012,506
93979038,510
93989082,506
93999088,510
94009115,503
94019155,506
94029157,510
94039186,499
94049226,505
94059257,510
94069254,511
94079291,506
94089321,513
94099319,517
94109352,523
94119379,528
94129379,530
94139415,524
94149449,531
94159452,532
94169480,532
94179526,527
94189534,529
94199561,528
94209603,528
94219610,523
94229639,523
94239685,514
94249692,516
94259724,516
94269765,516
94279795,513
94289792,507
94299828,509
94309859,507
94319859,500
94329899,506
94339932,504
94349931,504
94359966,500
94369995,501
94379998,508
94390026,501
94400071,505
94410076,504
94420100,511
94430139,507
94440137,507
94450157,510
94460191,510
94470182,509
94480200,504
94490231,506
94500223,500
94510238,505
94520271,499
94530267,503
94540290,504
94550322,505
94560348,504
94570341,507
94580370,501
94590400,497
94600398,509
94610417,504
94620454,508
94630447,502
94640464,500
94650504,500
94660504,507
94670526,507
94680564,504
94690565,504
94700587,499
94710623,503
94720622,509
94730646,508
94740684,506
94750687,508
94760717,508
94770757,500
94780763,503
94790793,508
94800828,505
94810861,506
94820866,508
94830895,501
94840946,502
94850955,506
94860982,508
94871026,507
94881033,502
94891059,506
94901105,502
94911108,506
94921132,508
94931173,506
94941176,507
94951204,501
94961244,501
94971246,506
94981274,509
94991316,511
95001321,506
95011352,505
95021387,509
95031421,507
95041425,511
95051450,510
95061497,513
95071500,515
95081522,522
95091566,519
95101571,533
95111597,529
95121641,527
95131644,530
95141675,528
95151720,523
95161723,525
95171755,524
95181797,521
95191805,520
95201838,521
95211881,513
95221885,517
95231918,511
95241959,512
95251966,508
95262000,510
95272028,512
95282078,505
95292085,504
95302112,507
95312160,508
95322170,500
95332197,502
95342242,499
95352246,503
95362277,505
95372320,506
95382327,501
95392359,507
95402403,510
95412408,507
95422441,500
95432482,501
95442491,506
95452524,499
95462560,507
95472565,501
95482596,500
95492622,508
95502639,507
95512674,509
95522699,505
95532745,509
95542750,498
95552778,507
95562824,506
95572830,503
95582857,507
95592901,503
95602904,499
95612933,503
95622974,501
95632975,502
95643001,508
95653037,504
95663040,509
95673070,512
95683114,510
95693122,506
95703160,508
95713203,503
95723212,504
95733252,502
95743282,507
95753283,508
95763336,501
95773367,507
95783417,505
95793428,507
95803459,507
95813507,506
95823516,507
95833547,508
95843594,507
95853602,508
95863637,507
95873680,506
95883689,511
95893725,509
95903764,508
95913773,504
95923810,503
95933851,504
95943858,506
95953894,507
95963922,509
95973922,505
95983976,510
95994004,512
96004005,518
96014060,517
96024091,524
96034086,526
96044140,526
96054170,526
96064214,530
96074220,531
96084249,528
96094288,523
96104290,522
96114317,524
96124357,524
96134362,524
96144395,518
96154433,517
96164439,515
96174474,514
96184498,511
96194497,510
96204546,505
96214568,506
96224565,508
96234619,507
96244647,506
96254641,501
96264694,503
96274723,504
96284763,502
96294767,503
96304795,506
96314834,507
96324841,507
96334873,508
96344912,511
96354917,506
96364951,508
96374994,501
96385001,508
96395034,507
96405057,509
96415072,510
96425110,505
96435138,510
96445132,504
96455179,509
96465202,506
96475196,507
96485244,508
96495271,504
96505269,508
96515325,505
96525358,507
96535354,502
96545411,506
96555448,507
96565491,505
96575498,500
96585535,504
96595582,506
96605592,506
96615629,505
96625657,507
96635673,502
96645710,506
96655738,507
96665739,502
96675794,506
96685820,503
96695817,503
96705873,506
96715906,506
96725908,507
96735964,507
96745996,508
96755990,507
96766044,505
96776076,507
96786115,508
96796119,508
96806149,508
96816189,510
96826193,509
96836226,508
96846254,509
96856273,509
96866311,512
96876337,514
96886336,515
96896388,512
96906410,521
96916404,513
96926457,516
96936485,524
96946480,524
96956535,519
96966563,524
96976554,518
96986605,518
96996630,518
97006619,518
97016664,518
97026689,509
97036676,512
97046726,511
97056756,505
97066791,504
97076794,511
97086829,508
97096856,508
97106854,511
97116907,507
97126933,508
97136927,505
97146977,499
97156999,509
97166992,508
97177042,505
97187069,506
97197063,509
97207117,514
97217146,506
97227136,503
97237188,508
97247219,503
97257209,508
97267261,508
97277296,508
97287284,506
97297333,501
97307365,503
97317388,505
97327387,508
97337442,502
97347469,505
97357463,509
97367516,506
97377547,504
97387545,507
97397598,502
97407627,509
97417623,506
97427678,508
97437709,504
97447706,507
97457760,509
97467794,508
97477784,507
97487841,503
97497875,504
97507867,503
97517920,506
97527953,505
97537978,508
97547994,501
97558032,501
97568061,505
97578061,507
97588117,507
97598146,503
97608141,507
97618191,509
97628215,504
97638210,500
97648263,509
97658292,508
97668284,510
97678334,512
97688367,512
97698363,511
97708419,511
97718459,516
97728452,515
97738507,517
97748542,515
97758531,519
97768585,513
97778623,520
97788651,518
97798653,516
97808709,509
97818740,509
97828739,515
97838796,516
97848827,510
97858825,506
97868876,509
97878906,504
97888899,511
97898953,505
97908986,509
97918975,511
97929027,511
97939059,507
97949053,511
97959104,508
97969136,505
97979123,503
97989172,504
97999205,506
98009196,512
98019231,508
98029284,504
98039270,509
98049304,505
98059355,505
98069381,509
98079378,510
98089431,510
98099462,511
98109456,503
98119508,512
98129539,507
98139532,511
98149588,510
98159619,507
98169609,510
98179658,506
98189689,510
98199675,507
98209726,511
98219760,509
98229746,507
98239780,504
98249830,504
98259813,501
98269848,508
98279899,511
98289922,509
98299915,504
98309962,505
98319986,503
98329980,507
98340031,509
98350063,507
98360057,501
98370112,508
98380145,505
98390141,511
98400196,505
98410232,506
98420229,509
98430290,507
98440328,514
98450316,514
98460350,515
98470402,524
98480390,529
98490426,525
98500481,530
98510469,531
98520506,531
98530560,526
98540591,523
98550584,521
98560635,519
98570663,520
98580653,520
98590704,519
98600736,513
98610727,514
98620777,507
98630807,513
98640794,504
98650844,505
98660876,507
98670861,506
98680895,508
98690949,500
98700938,498
98710976,505
98721028,508
98731013,504
98741049,503
98751103,507
98761091,505
98771127,510
98781179,509
98791168,508
98801199,510
98811253,507
98821285,510
98831278,506
98841332,510
98851364,507
98861355,508
98871406,509
98881439,499
98891426,501
98901475,504
98911508,507
98921495,507
98931530,503
98941580,506
98951568,505
98961601,508
98971650,508
98981635,508
98991663,505
99001708,508
99011689,509
99021722,506
99031768,505
99041749,504
99051780,503
99061827,503
99071854,510
99081841,505
99091890,506
99101919,509
99111906,510
99121956,509
99131988,503
99141971,508
99152003,504
99162054,511
99172041,511
99182077,510
99192129,516
99202115,517
99212148,528
99222197,522
99232181,530
99242215,531
99252263,527
99262243,536
99272273,536
99282318,534
99292300,524
99302331,531
99312381,530
99322408,520
99332394,526
99342444,524
99352477,521
99362463,520
99372495,513
99382546,512
99392529,511
99402559,505
99412606,508
99422588,510
99432617,511
99442662,503
99452641,507
99462677,510
99472726,508
99482707,507
99492736,508
99502782,507
99512765,508
99522796,509
99532843,505
99542826,506
99552855,508
99562901,503
99572930,506
99582913,500
99592942,507
99602989,506
99612971,506
99623003,503
99633054,506
99643038,507
99653068,510
99663112,506
99673096,503
99683126,503
99693174,507
99703156,504
99713186,502
99723233,506
99733220,506
99743254,507
99753307,506
99763296,505
99773329,504
99783379,505
99793363,500
99803395,504
99813424,505
99823471,505
99833458,504
99843490,504
99853545,505
99863528,501
99873566,506
99883618,501
99893606,501
99903642,509
99913693,505
99923678,509
99933714,515
99943765,518
99953753,520
99963789,528
99973841,530
99983829,538
99993865,536
100003917,537
100013904,535
100023941,535
100033975,531
100043975,528
100054008,533
100064040,525
100074090,524
100084077,530
100094107,525
100104156,519
100114138,519
100124170,519
100134221,519
100144205,514
100154237,516
100164288,511
100174271,510
100184305,509
100194355,502
100204342,506
100214376,503
100224423,501
100234406,508
100244438,501
100254488,510
100264473,508
100274509,511
100284542,502
100294546,503
100304581,508
100314616,506
100324669,499
100334655,505
100344694,505
100354751,501
100364743,504
100374775,504
100384821,506
100394805,501
100404835,507
100414883,499
100424870,506
100434901,504
100444947,507
100454929,505
100464961,504
100475008,501
100484993,497
100495022,498
100505051,505
100515051,506
100525082,501
100535114,507
100545118,507
100555150,508
100565179,506
100575225,507
100585208,504
100595239,508
100605289,506
100615272,509
100625303,505
100635355,503
100645339,506
100655371,504
100665420,507
100675403,506
100685428,505
100695471,503
100705454,507
100715487,508
100725522,504
100735523,517
100745556,522
100755587,524
100765585,529
100775613,531
100785642,531
100795641,536
100805672,540
100815701,536
100825748,529
100835730,536
100845763,532
100855812,528
100865797,525
100875829,526
100885879,523
100895866,520
100905902,519
100915953,513
100925940,514
100935973,510
100946006,508
100956008,503
100966042,503
100976080,506
100986085,497
100996116,501
101006149,505
101016151,503
101026180,498
101036209,496
101046258,505
101056244,505
101066279,506
101076332,506
101086323,504
101096361,507
101106414,506
101116405,498
101126442,505
101136494,506
101146483,503
101156519,506
101166554,501
101176559,502
101186598,501
101196633,498
101206634,505
101216668,499
101226699,503
101236701,502
101246728,500
101256759,502
101266759,503
101276789,502
101286819,504
101296822,505
101306855,501
101316887,505
101326941,504
101336927,499
101346957,504
101357005,506
101366989,504
101377021,503
101387067,503
101397049,503
101407081,506
101417114,506
101427112,505
101437143,504
101447177,506
101457177,500
101467203,502
101477233,503
101487236,502
101497270,508
101507305,503
101517310,503
101527341,507
101537376,509
101547379,513
101557414,516
101567451,513
101577505,522
101587494,527
101597530,528
101607581,528
101617569,532
101627606,531
101637642,526
101647645,535
101657676,531
101667712,528
101677717,520
101687752,526
101697787,522
101707791,520
101717825,511
101727857,508
101737860,506
101747893,511
101757925,507
101767929,504
101777962,506
101787995,500
101797998,496
101808034,497
101818073,496
101828126,503
101838116,503
101848152,502
101858185,504
101868187,501
101878220,502
101888254,502
101898262,500
101908299,508
101918337,506
101928342,506
101938376,503
101948411,504
101958414,504
101968445,502
101978476,503
101988477,504
101998507,505
102008544,501
102018550,503
102028587,501
102038623,507
102048627,507
102058661,498
102068694,505
102078730,508
102088736,502
102098772,499
102108807,507
102118814,508
102128852,498
102138888,504
102148889,508
102158926,502
102168962,506
102178964,506
102188999,504
102199035,503
102209041,503
102219075,503
102229111,501
102239115,501
102249149,499
102259184,504
102269189,504
102279224,505
102289260,501
102299293,508
102309294,504
102319329,508
102329362,507
102339364,514
102349395,517
102359425,522
102369429,522
102379465,530
102389501,532
102399504,529
102409537,535
102419572,528
102429575,530
102439610,523
102449644,522
102459646,527
102469680,524
102479712,520
102489715,517
102499751,511
102509783,507
102519784,507
102529817,507
102539851,510
102549855,508
102559890,507
102569925,500
102579963,498
102589969,507
102600006,504
102610044,497
102620051,500
102630087,506
102640120,506
102650124,508
102660155,508
102670184,502
102680185,508
102690217,508
102700250,508
102710253,510
102720285,504
102730320,502
102740322,500
102750353,504
102760389,505
102770398,505
102780436,504
102790473,504
102800481,507
102810516,498
102820548,502
102830581,504
102840584,503
102850616,501
102860648,498
102870648,503
102880678,505
102890709,502
102900704,506
102910734,500
102920765,508
102930763,500
102940795,498
102950823,504
102960826,502
102970858,505
102980891,498
102990892,506
103000925,502
103010955,502
103020956,502
103030989,506
103041018,507
103051018,508
103061049,507
103071081,503
103081115,507
103091118,514
103101151,520
103111184,524
103121182,523
103131214,528
103141247,529
103151247,534
103161279,532
103171314,527
103181320,527
103191356,528
103201386,525
103211384,526
103221416,519
103231448,523
103241446,518
103251480,517
103261515,512
103271519,512
103281554,510
103291588,510
103301620,512
103311622,503
103321653,506
103331686,499
103341683,500
103351715,500
103361746,499
103371745,509
103381773,499
103391802,503
103401801,509
103411828,504
103421857,509
103431855,506
103441886,502
103451918,508
103461916,502
103471946,504
103481978,504
103491982,504
103502015,503
103512046,506
103522044,505
103532073,503
103542100,503
103552097,503
103562129,502
103572162,503
103582193,504
103592194,504
103602226,503
103612260,501
103622262,507
103632294,506
103642327,502
103652328,498
103662360,498
103672393,499
103682394,505
103692426,506
103702460,505
103712462,499
103722494,508
103732527,506
103742529,506
103752561,509
103762589,500
103772591,504
103782623,503
103792654,513
103802686,513
103812688,515
103822721,524
103832753,528
103842754,529
103852783,526
103862810,535
103872810,527
103882845,528
103892878,528
103902883,533
103912914,526
103922946,528
103932949,515
103942984,520
103953018,519
103963023,518
103973060,512
103983095,510
103993098,504
104003129,513
104013161,504
104023166,506
104033202,506
104043239,501
104053274,501
104063281,505
104073316,507
104083351,501
104093356,507
104103388,501
104113422,507
104123423,500
104133459,506
104143495,508
104153502,502
104163537,506
104173571,502
104183578,501
104193614,504
104203648,502
104213653,502
104223690,506
104233728,498
104243734,506
104253769,502
104263802,501
104273810,503
104283848,503
104293885,498
104303890,504
104313925,500
104323962,500
104333996,506
104344000,502
104354035,499
104364067,506
104374069,501
104384103,503
104394136,507
104404137,505
104414171,506
104424204,502
104434206,504
104444239,504
104454271,506
104464272,507
104474305,505
104484337,504
104494337,508
104504366,501
104514398,506
104524402,505
104534437,506
104544466,513
104554497,522
104564499,528
104574533,531
104584567,534
104594569,534
104604601,539
104614635,534
104624637,534
104634673,540
104644706,534
104654704,528
104664737,529
104674770,523
104684767,518
104694795,517
104704823,518
104714825,516
104724858,508
104734890,514
104744889,511
104754921,503
104764953,508
104774952,506
104784985,502
104795018,505
104805019,503
104815051,503
104825083,506
104835118,503
104845124,506
104855161,505
104865194,503
104875200,508
104885242,508
104895283,508
104905289,502
104915324,504
104925360,499
104935366,508
104945399,502
104955436,501
104965443,504
104975478,507
104985513,504
104995519,501
105005558,499
105015594,506
105025602,503
105035632,503
105045665,497
105055700,496
105065703,501
105075739,502
105085772,498
105095776,505
105105809,503
105115847,501
105125854,499
105135889,499
105145926,503
105155929,502
105165968,503
105176006,501
105186011,498
105196046,502
105206088,497
105216102,504
105226146,505
105236190,501
105246205,499
105256248,506
105266290,505
105276295,504
105286329,506
105296363,506
105306365,507
105316399,504
105326435,514
105336471,510
105346474,517
105356506,530
105366540,533
105376545,535
105386578,536
105396611,538
105406614,538
105416648,536
105426682,537
105436685,528
105446721,530
105456760,529
105466766,527
105476803,522
105486842,518
105496849,517
105506889,516
105516927,513
105526932,510
105536971,501
105547010,509
105557015,498
105567052,506
105577089,497
105587124,504
105597127,502
105607161,500
105617195,502
105627200,506
105637235,501
105647268,505
105657272,507
105667305,504
105677335,506
105687341,509
105697376,501
105707408,506
105717409,507
105727438,503
105737469,505
105747472,503
105757508,502
105767545,500
105777551,498
105787587,506
105797622,501
105807656,503
105817662,502
105827699,499
105837734,499
105847738,499
105857772,502
105867801,503
105877801,505
105887838,506
105897874,500
105907878,502
105917914,500
105927947,500
105937950,506
105947983,500
105958018,505
105968022,502
105978055,504
105988087,499
105998086,508
106008120,505
106018154,503
106028156,502
106038190,505
106048220,507
106058253,509
106068256,498
106078291,499
106088322,500
106098324,506
106108358,505
106118392,508
106128396,506
106138431,508
106148462,502
106158462,512
106168491,514
106178524,521
106188531,527
106198565,531
106208601,532
106218604,538
106228639,537
106238674,539
106248680,529
106258716,535
106268752,531
106278759,523
106288795,527
106298832,524
106308835,520
106318871,515
106328907,513
106338942,512
106348944,510
106358978,506
106369014,501
106379016,504
106389046,497
106399081,504
106409085,503
106419117,496
106429152,505
106439151,507
106449181,504
106459217,504
106469222,506
106479256,505
106489293,506
106499297,504
106509330,502
106519363,508
106529362,507
106539396,501
106549432,504
106559436,500
106569471,506
106579505,505
106589537,502
106599539,502
106609572,503
106619600,498
106629600,505
106639634,501
106649665,506
106659664,496
106669696,504
106679730,506
106689734,498
106699770,505
106709806,502
106719813,498
106729849,506
106739882,503
106749883,501
106759911,504
106769941,497
106779942,499
106789980,505
106800014,508
106810022,504
106820058,504
106830094,505
106840129,503
106850133,504
106860168,501
106870206,504
106880214,507
106890250,505
106900287,507
106910292,505
106920324,502
106930361,506
106940370,506
106950408,504
106960443,510
106970449,506
106980488,514
106990525,518
107000531,519
107010570,524
107020603,526
107030605,533
107040636,537
107050670,538
107060703,532
107070711,530
107080751,531
107090790,534
107100794,533
107110830,527
107120867,526
107130874,522
107140907,517
107150938,520
107160943,515
107170977,513
107181013,512
107191020,502
107201054,510
107211088,500
