timestamp, ppg
11042829,511
11052577,518
11062595,518
11072645,523
11082694,519
11092713,524
11102762,529
11112812,523
11122828,529
11132871,527
11142921,521
11152940,524
11162990,519
11173037,515
11183086,515
11193104,514
11203155,511
11213203,512
11223221,506
11233273,504
11243327,504
11253350,499
11263404,501
11273455,506
11283478,500
11293528,504
11303577,504
11313600,499
11323653,508
11333709,498
11343730,504
11353783,505
11363836,505
11373859,505
11383914,502
11393971,506
11403994,506
11414048,506
11424101,500
11434127,500
11444184,512
11454243,506
11464299,497
11474318,504
11484368,505
11494420,506
11504443,505
11514496,500
11524548,508
11534568,497
11544617,498
11554666,507
11564687,501
11574736,506
11584784,504
11594805,506
11604855,506
11614900,503
11624915,507
11634962,501
11645009,500
11655024,509
11665072,504
11675120,499
11685135,500
11695182,508
11705229,498
11715276,507
11725292,505
11735340,509
11745391,498
11755414,508
11765464,501
11775514,505
11785536,501
11795589,506
11805643,498
11815664,505
11825717,504
11835769,504
11845789,503
11855839,503
11865892,503
11875916,498
11885969,509
11896021,511
11906042,509
11916092,515
11926146,517
11936201,520
11946223,526
11956274,528
11966324,525
11976342,526
11986394,529
11996443,518
12006464,521
12016514,517
12026563,521
12036584,512
12046633,517
12056683,505
12066700,511
12076748,511
12086796,506
12096813,503
12106864,508
12116911,506
12126930,507
12136978,506
12147027,503
12157044,502
12167092,503
12177144,499
12187195,506
12197218,504
12207273,508
12217326,507
12227346,500
12237399,501
12247453,508
12257476,502
12267532,505
12277585,505
12287608,503
12297658,496
12307707,498
12317727,500
12327779,502
12337832,503
12347853,503
12357906,506
12367959,505
12377980,497
12388027,502
12398076,507
12408089,504
12418135,505
12428185,506
12438233,501
12448254,497
12458306,502
12468357,504
12478376,508
12488426,505
12498477,506
12508497,503
12518548,507
12528598,503
12538618,499
12548669,503
12558720,506
12568741,506
12578790,508
12588841,506
12598863,511
12608915,508
12618966,502
12628984,509
12639029,508
12649077,502
12659096,508
12669146,509
12679197,500
12689249,504
12699272,501
12709327,499
12719380,503
12729401,505
12739450,509
12749502,504
12759522,512
12769574,513
12779628,520
12789654,519
12799712,519
12809765,526
12819790,527
12829839,529
12839891,521
12849914,522
12859968,521
12870020,519
12880043,519
12890097,514
12900149,516
12910172,505
12920224,507
12930279,509
12940332,501
12950357,507
12960414,500
12970469,503
12980492,503
12990548,495
13000603,497
13010632,501
13020689,499
13030748,499
13040775,501
13050832,505
13060890,511
13070917,503
13080974,512
13091028,506
13101051,508
13111105,509
13121161,509
13131184,505
13141236,503
13151288,507
13161311,508
13171365,505
13181419,497
13191444,505
13201498,501
13211549,502
13221601,501
13231626,504
13241682,505
13251737,505
13261760,500
13271811,500
13281866,505
13291889,504
13301945,503
13312000,505
13322023,497
13332078,500
13342135,505
13352159,506
13362217,504
13372274,504
13382297,502
13392353,503
13402408,507
13412435,505
13422492,504
13432550,505
13442609,501
13452634,507
13462690,507
13472747,507
13482770,499
13492824,501
13502880,506
13512904,504
13522964,502
13533026,505
13543054,500
13553109,510
13563164,513
13573190,519
13583248,522
13593306,519
13603334,527
13613392,532
13623450,529
13633476,532
13643532,523
13653589,528
13663616,525
13673674,528
13683734,522
13693792,513
13703823,516
13713883,509
13723943,506
13733974,510
13744036,504
13754098,509
13764129,509
13774191,499
13784250,504
13794278,495
13804339,506
13814400,503
13824429,498
13834488,497
13844547,506
13854577,499
13864635,502
13874690,505
13884713,508
13894768,511
13904824,501
13914849,506
13924901,501
13934952,508
13944971,505
13955029,509
13965086,511
13975146,507
13985173,506
13995231,508
14005287,500
14015312,508
14025370,504
14035430,507
14045457,502
14055513,501
14065570,504
14075596,508
14085652,509
14095707,505
14105730,506
14115780,511
14125832,509
14135853,505
14145904,506
14155964,501
14165996,508
14176058,502
14186120,509
14196147,499
14206205,510
14216269,506
14226330,505
14236359,501
14246420,501
14256483,504
14266514,507
14276576,506
14286637,502
14296668,500
14306732,503
14316798,499
14326828,504
14336889,504
14346939,503
14356961,504
14367016,499
14377071,502
14387094,511
14397148,506
14407205,515
14417235,513
14427297,520
14437357,525
14447414,533
14457440,525
14467499,533
14477559,526
14487591,529
14497651,524
14507711,523
14517740,522
14527799,512
14537861,512
14547887,511
14557940,509
14567995,506
14578018,510
14588072,503
14598122,501
14608143,502
14618197,501
14628250,501
14638272,505
14648328,501
14658390,499
14668422,505
14678483,504
14688542,504
14698604,501
14708636,505
14718697,511
14728756,509
14738783,506
14748838,511
14758897,508
14768923,505
14778980,504
14789038,506
14799066,505
14809124,510
14819185,504
14829214,501
14839274,509
14849333,505
14859365,507
14869426,502
14879482,504
14889510,499
14899569,502
14909624,501
14919650,505
14929704,508
14939760,504
14949819,504
14959845,504
14969902,505
14979955,500
14989977,505
15000031,506
15010086,502
15020110,505
15030171,503
15040232,501
15050263,507
15060327,507
15070390,510
15080418,505
15090477,504
15100536,506
15110561,507
15120615,502
15130667,500
15140689,499
15150743,505
15160797,501
15170819,504
15180871,503
15190921,506
15200940,505
15210992,510
15221045,509
15231097,508
15241118,509
15251168,520
15261223,516
15271246,522
15281302,530
15291356,525
15301379,524
15311434,523
15321487,521
15331511,520
15341565,514
15351622,515
15361644,513
15371700,507
15381755,509
15391780,505
15401835,500
15411888,499
15421912,504
15431966,502
15442021,497
15452077,500
15462101,503
15472156,502
15482210,499
15492234,500
15502287,505
15512340,506
15522367,509
15532425,507
15542484,504
15552511,510
15562568,504
15572625,506
15582651,502
15592710,505
15602767,502
15612793,506
15622848,502
15632903,504
15642928,502
15652983,498
15663038,498
15673062,504
15683114,502
15693170,503
15703196,497
15713253,499
15723307,506
15733362,501
15743387,505
15753444,506
15763501,501
15773526,498
15783580,506
15793632,501
15803655,508
15813708,505
15823763,499
15833786,499
15843835,509
15853885,503
15863905,505
15873957,501
15884010,496
15894039,493
15904094,492
15914147,501
15924170,503
15934223,503
15944274,499
15954298,503
15964351,499
15974407,499
15984464,502
15994489,497
16004544,500
16014598,506
16024620,508
16034675,516
16044727,521
16054748,520
16064800,524
16074852,525
16084873,530
16094922,526
16104974,520
16114999,523
16125052,520
16135107,514
16145130,516
16155179,513
16165230,511
16175252,504
16185304,503
16195356,505
16205383,497
16215442,497
16225501,493
16235560,501
16245582,499
16255635,496
16265688,493
16275710,500
16285763,500
16295818,504
16305845,496
16315905,505
16325960,502
16335983,507
16346037,497
16356088,504
16366113,502
16376170,498
16386227,508
16396252,503
16406309,503
16416366,505
16426392,505
16436444,501
16446498,504
16456523,500
16466577,504
16476632,497
16486685,504
16496708,502
16506760,501
16516812,502
16526837,500
16536890,505
16546942,498
16556965,500
16567017,498
16577072,504
16587095,497
16597150,505
16607206,505
16617230,503
16627287,507
16637345,506
16647368,503
16657423,502
16667478,502
16677504,508
16687560,503
16697619,505
16707647,498
16717704,503
16727760,495
16737817,497
16747846,506
16757903,501
16767956,502
16777980,503
16788036,510
16798092,504
16808117,513
16818172,511
16828227,523
16838251,526
16848305,532
16858361,527
16868386,527
16878443,527
16888498,528
16898522,521
16908575,522
16918626,521
16928649,519
16938706,510
16948763,507
16958788,506
16968840,510
16978893,502
16988947,507
16998972,506
17009026,501
17019081,504
17029104,495
17039159,502
17049215,504
17059240,499
17069297,499
17079354,504
17089381,500
17099434,503
17109488,504
17119510,504
17129562,508
17139611,508
17149628,503
17159680,503
17169731,509
17179750,504
17189803,499
17199854,506
17209873,501
17219923,506
17229974,502
17240024,504
17250045,505
17260096,500
17270147,508
17280167,503
17290218,504
17300267,498
17310289,503
17320340,505
17330392,502
17340412,500
17350465,501
17360520,502
17370540,503
17380590,504
17390641,500
17400661,500
17410713,507
17420765,502
17430783,506
17440831,505
17450880,503
17460901,505
17470945,501
17480990,505
17491035,503
17501054,506
17511105,500
17521156,496
17531175,503
17541230,504
17551283,503
17561304,497
17571356,497
17581410,506
17591437,505
17601495,516
17611554,518
17621580,520
17631635,524
17641691,522
17651720,528
17661780,522
17671834,519
17681859,527
17691916,523
17701972,523
17711995,521
17722048,517
17732101,510
17742156,512
17752179,512
17762233,511
17772292,508
17782316,505
17792371,510
17802426,510
17812450,510
17822503,501
17832553,508
17842578,506
17852632,508
17862687,507
17872713,508
17882766,507
17892818,511
17902838,503
17912891,508
17922945,511
17932969,507
17943025,512
17953081,505
17963108,507
17973165,504
17983222,506
17993283,501
18003312,507
18013368,505
18023427,498
18033453,508
18043510,501
18053565,507
18063589,508
18073643,499
18083698,507
18093718,503
18103765,508
18113817,502
18123840,505
18133895,504
18143949,506
18153973,507
18164027,506
18174082,513
18184106,512
18194162,514
18204219,506
18214277,508
18224302,512
18234356,512
18244411,503
18254436,508
18264491,512
18274546,509
18284574,507
18294631,505
18304692,508
18314720,509
18324780,502
18334839,510
18344865,506
18354920,502
18364977,504
18375001,508
18385052,498
18395109,512
18405136,512
18415198,507
18425260,519
18435283,524
18445332,528
18455385,524
18465409,529
18475464,538
18485516,530
18495568,533
18505590,528
18515642,530
18525693,523
18535714,521
18545767,513
18555820,519
18565843,513
18575897,510
18585951,510
18595972,504
18606024,506
18616080,507
18626104,496
18636156,506
18646210,503
18656235,503
18666287,502
18676343,496
18686372,511
18696428,507
18706485,507
18716508,509
18726565,509
18736620,509
18746670,513
18756692,508
18766743,508
18776795,511
18786817,508
18796870,508
18806922,508
18816944,505
18826996,506
18837047,508
18847067,505
18857117,499
18867168,504
18877190,495
18887245,505
18897299,501
18907319,502
18917368,507
18927422,504
18937449,497
18947506,502
18957564,507
18967615,506
18977638,499
18987692,507
18997741,505
19007764,509
19017818,501
19027871,508
19037893,508
19047947,500
19057999,510
19068015,503
19078065,506
19088121,505
19098146,505
19108203,502
19118258,501
19128280,508
19138334,503
19148387,504
19158411,508
19168462,500
19178515,510
19188531,502
19198580,508
19208630,499
19218685,506
19228706,506
19238756,511
19248807,512
19258827,514
19268881,523
19278933,525
19288956,527
19299010,530
19309063,531
19319087,533
19329143,529
19339194,519
19349216,523
19359267,520
19369321,510
19379345,513
19389401,512
19399460,508
19409487,505
19419544,504
19429600,503
19439626,500
19449682,500
19459733,500
19469757,497
19479806,495
19489856,501
19499908,501
19509928,504
19519983,504
19530039,504
19540063,499
19550119,500
19560177,505
19570202,507
19580256,504
19590308,499
19600328,499
19610376,504
19620429,499
19630449,503
19640500,502
19650552,507
19660574,503
19670628,504
19680683,502
19690707,500
19700762,504
19710819,505
19720878,503
19730904,502
19740960,505
19751016,504
19761043,498
19771095,506
19781144,502
19791165,506
19801219,505
19811273,499
19821293,503
19831341,499
19841389,501
19851407,499
19861455,505
19871504,507
19881524,498
19891574,497
19901624,504
19911644,505
19921694,506
19931745,503
19941764,503
19951810,504
19961860,506
19971911,506
19981932,509
19991984,503
20002033,496
20012047,508
20022091,502
20032145,500
20042168,502
20052221,507
20062274,511
20072293,512
20082348,518
20092401,520
20102424,524
20112481,530
20122539,532
20132565,530
20142618,527
20152675,527
20162697,530
20172754,528
20182810,527
20192836,521
20202889,520
20212944,514
20222968,513
20233022,508
20243075,509
20253125,508
20263144,505
20273196,506
20283240,506
20293259,500
20303309,508
20313359,502
20323378,506
20333431,507
20343486,507
20353509,502
20363563,500
20373617,505
20383642,502
20393695,505
20403749,506
20413775,504
20423830,504
20433888,508
20443919,508
20453977,506
20464036,500
20474093,508
20484113,508
20494164,504
20504216,501
20514239,502
20524292,507
20534346,505
20544367,499
20554418,504
20564470,502
20574488,500
20584539,504
20594592,503
20604614,507
20614666,504
20624717,507
20634740,501
20644789,499
20654840,507
20664862,504
20674914,508
20684968,502
20694989,500
20705041,504
20715094,505
20725146,508
20735166,507
20745218,506
20755271,502
20765293,500
20775346,497
20785401,497
20795422,506
20805476,505
20815529,507
20825553,507
20835605,506
20845657,504
20855680,503
20865735,507
20875790,503
20885810,502
20895861,505
20905914,507
20915937,517
20925993,522
20936050,523
20946073,521
20956129,532
20966185,531
20976211,534
20986266,531
20996319,529
21006372,528
21016393,519
21026444,521
21036495,516
21046518,515
21056571,505
21066622,508
21076643,509
21086694,503
21096745,507
21106765,504
21116819,498
21126871,501
21136893,502
21146946,500
21157000,497
21167023,504
21177077,502
21187133,499
21197152,499
21207202,496
21217251,498
21227270,499
21237322,497
21247373,501
21257429,493
21267450,500
21277499,497
21287548,500
21297567,496
21307616,499
21317666,495
21327684,497
21337736,497
21347786,496
21357805,493
21367853,498
21377908,497
21387934,498
21397988,502
21408038,497
21418059,501
21428112,505
21438164,502
21448188,498
21458239,500
21468290,500
21478340,501
21488356,505
21498403,507
21508455,500
21518474,506
21528523,508
21538572,506
21548587,502
21558634,507
21568682,508
21578700,501
21588750,510
21598801,510
21608822,504
21618872,504
21628921,500
21638938,504
21648986,500
21659037,506
21669057,506
21679107,500
21689159,505
21699181,504
21709234,500
21719285,500
21729335,503
21739352,508
21749402,508
21759452,511
21769473,516
21779532,519
21789590,526
21799619,527
21809677,530
21819737,532
21829761,536
21839811,530
21849863,524
21859885,525
21869936,523
21879989,514
21890010,511
21900056,516
21910107,512
21920127,507
21930175,507
21940224,508
21950246,497
21960298,504
21970352,499
21980406,502
21990428,502
22000480,504
22010533,507
22020552,502
22030603,501
22040655,502
22050676,505
22060727,509
22070780,508
22080803,508
22090855,508
22100906,506
22110926,506
22120978,509
22131030,502
22141052,508
22151106,502
22161160,501
22171181,503
22181232,505
22191280,506
22201302,503
22211357,503
22221411,505
22231464,502
22241487,495
22251539,500
22261591,502
22271611,503
22281664,501
22291713,501
22301735,503
22311789,503
22321847,499
22331873,502
22341931,502
22351985,502
22362008,499
22372064,504
22382120,504
22392145,498
22402199,502
22412255,498
22422280,507
22432335,498
22442385,504
22452408,501
22462464,506
22472521,507
22482579,504
22492607,502
22502663,505
22512721,506
22522747,505
22532803,506
22542859,498
22552879,499
22562931,504
22572983,505
22583004,505
22593057,512
22603107,520
22613128,522
22623182,525
22633236,527
22643262,532
22653318,530
22663371,531
22673389,528
22683438,522
22693487,529
22703509,520
22713563,520
22723617,520
22733669,517
22743691,511
22753743,506
22763793,512
22773812,511
22783863,505
22793918,507
22803943,505
22813997,501
22824054,507
22834081,503
22844137,503
22854194,509
22864220,504
22874273,503
22884325,512
22894350,511
22904403,505
22914453,504
22924473,503
22934525,512
22944577,503
22954597,509
22964643,503
22974694,506
22984749,501
22994775,506
23004829,508
23014883,506
23024907,505
23034960,502
23045010,507
23055033,506
23065088,506
23075141,507
23085167,507
23095222,499
23105273,508
23115295,509
23125351,500
23135404,505
23145425,499
23155476,508
23165532,505
23175552,501
23185603,505
23195657,505
23205679,505
23215732,505
23225784,502
23235835,502
23245858,503
23255911,504
23265964,504
23275986,502
23286038,503
23296089,499
23306109,501
23316162,505
23326216,500
23336237,500
23346287,508
23356337,506
23366360,511
23376413,517
23386469,520
23396493,525
23406548,532
23416603,533
23426626,533
23436675,534
23446727,536
23456747,527
23466801,524
23476853,521
23486907,523
23496929,519
23506981,516
23517035,514
23527057,503
23537111,501
23547166,499
23557187,499
23567241,500
23577292,505
23587315,503
23597371,504
23607425,504
23617449,503
23627503,503
23637555,500
23647577,499
23657629,504
23667680,507
23677697,510
23687747,501
23697796,505
23707813,511
23717864,505
23727913,508
23737963,506
23747981,509
23758029,508
23768079,509
23778098,504
23788149,504
23798201,505
23808224,503
23818276,501
23828329,505
23838351,505
23848403,500
23858456,505
23868480,499
23878534,506
23888586,509
23898608,509
23908660,506
23918715,506
23928737,507
23938792,505
23948847,505
23958870,501
23968926,506
23978982,506
23989037,509
23999059,506
24009113,510
24019167,502
24029192,501
24039249,506
24049301,508
24059322,505
24069369,501
24079422,509
24089444,510
24099494,509
24109541,507
24119559,505
24129608,503
24139658,513
24149675,512
24159724,514
24169775,524
24179796,522
24189845,528
24199895,521
24209912,532
24219963,523
24230011,530
24240059,527
24250078,521
24260127,520
24270178,515
24280197,519
24290246,516
24300293,515
24310310,503
24320357,504
24330404,506
24340421,505
24350469,494
24360517,503
24370536,502
24380586,504
24390634,503
24400648,502
24410697,506
24420749,502
24430768,501
24440819,510
24450870,509
24460891,505
24470944,503
24480997,506
24491050,507
24501074,502
24511125,508
24521173,502
24531195,504
24541244,505
24551298,499
24561321,504
24571376,505
24581429,506
24591451,505
24601504,502
24611557,506
24621577,500
24631625,505
24641677,504
24651697,498
24661748,498
24671796,505
24681816,503
24691868,501
24701920,507
24711939,504
24721986,509
24732038,503
24742060,503
24752112,507
24762162,508
24772212,501
24782233,506
24792283,501
24802335,510
24812356,503
24822409,506
24832463,507
24842489,507
24852541,506
24862596,504
24872621,504
24882674,503
24892725,499
24902747,500
24912798,507
24922845,510
24932865,509
24942917,507
24952967,517
24962986,523
24973033,520
24983082,526
24993132,530
25003151,524
25013203,529
25023259,528
25033287,525
25043341,519
25053388,511
25063408,513
25073457,512
25083509,507
25093528,492
25103578,498
25113631,502
25123648,503
25133701,499
25143755,501
25153775,497
25163826,499
25173881,506
25183901,508
25193949,506
25203995,508
25214009,508
25224058,508
25234108,507
25244156,504
25254178,508
25264227,505
25274280,502
25284303,498
25294357,499
25304412,499
25314436,496
25324494,493
25334548,495
25344572,496
25354623,495
25364679,500
25374704,502
25384760,501
25394813,498
25404837,506
25414892,499
25424946,504
25434967,504
25445019,500
25455070,508
25465089,512
25475142,503
25485196,506
25495250,507
25505271,504
25515325,501
25525377,503
25535398,505
25545449,507
25555497,510
25565520,511
25575574,505
25585621,508
25595642,508
25605701,508
25615759,503
25625785,499
25635841,509
25645899,506
25655925,507
25665984,506
25676041,499
25686058,499
25696106,508
25706157,508
25716175,505
25726225,512
25736274,512
25746290,511
25756338,518
25766386,519
25776435,526
25786454,522
25796506,529
25806562,524
25816588,529
25826644,522
25836701,523
25846722,521
25856778,512
25866835,511
25876861,506
25886919,506
25896979,504
25907006,503
25917058,500
25927109,504
25937130,495
25947180,503
25957231,501
25967253,504
25977306,507
25987358,506
25997408,510
26007428,507
26017478,512
26027527,513
26037543,513
26047591,507
26057642,514
26067658,510
26077705,510
26087756,510
26097776,506
26107830,508
26117878,503
26127892,504
26137938,505
26147984,507
26158004,499
26168055,505
26178107,503
26188125,505
26198175,501
26208225,504
26218244,499
26228295,504
26238349,502
26248402,506
26258424,504
26268475,505
26278524,504
26288539,505
26298591,506
26308639,505
26318656,506
26328702,508
26338752,506
26348774,510
26358825,511
26368874,507
26378893,504
26388942,512
26398992,507
26409007,506
26419056,500
26429104,509
26439122,504
26449174,506
26459223,511
26469243,508
26479292,504
26489340,512
26499387,508
26509403,505
26519450,512
26529497,518
26539516,520
26549562,520
26559607,530
26569623,533
26579669,531
26589716,530
26599734,528
26609783,520
26619833,520
26629854,520
26639906,519
26649957,511
26659975,507
26670021,507
26680073,503
26690094,502
26700146,495
26710199,502
26720220,502
26730273,500
26740325,503
26750377,500
26760395,504
26770446,505
26780495,503
26790518,499
26800569,505
26810617,509
26820637,508
26830688,508
26840740,510
26850762,506
26860812,511
26870864,503
26880885,507
26890940,511
26900994,507
26911019,509
26921075,501
26931128,501
26941149,500
26951197,507
26961249,506
26971268,499
26981319,508
26991369,504
27001419,505
27011438,504
27021487,509
27031540,509
27041561,501
27051615,500
27061667,508
27071685,509
27081732,505
27091782,506
27101799,509
27111849,511
27121898,508
27131921,508
27141975,506
27152030,508
27162057,504
27172112,507
27182167,507
27192191,500
27202243,505
27212295,499
27222317,508
27232370,507
27242421,511
27252474,512
27262497,515
27272548,518
27282599,519
27292621,528
27302673,526
27312723,530
27322745,529
27332797,529
27342847,525
27352867,525
27362920,506
27372971,517
27382993,517
27393044,513
27403095,505
27413115,504
27423169,506
27433222,505
27443244,505
27453297,506
27463350,498
27473370,508
27483421,499
27493469,506
27503488,500
27513539,506
27523590,508
27533641,508
27543661,509
27553711,509
27563762,507
27573780,511
27583832,506
27593883,508
27603901,506
27613950,507
27624002,507
27634024,508
27644075,509
27654126,505
27664144,502
27674190,502
27684240,504
27694259,501
27704311,505
27714361,506
27724382,505
27734432,507
27744481,506
27754500,502
27764553,499
27774604,504
27784653,506
27794676,503
27804726,503
27814777,506
27824799,500
27834847,501
27844898,505
27854925,504
27864983,507
27875044,508
27885068,501
27895120,508
27905171,504
27915191,503
27925240,505
27935291,504
27945310,504
27955357,507
27965409,507
27975429,504
27985479,509
27995528,514
28005579,512
28015597,520
28025647,523
28035695,531
28045713,523
28055758,532
28065805,532
28075825,525
28085874,522
28095925,525
28105943,515
28115988,513
28126038,516
28136055,513
28146101,501
28156146,506
28166165,506
28176215,508
28186265,499
28196284,502
28206334,503
28216387,502
28226404,499
28236449,505
28246500,506
28256550,508
28266568,507
28276617,507
28286666,506
28296683,511
28306730,510
28316773,506
28326790,509
28336835,509
28346883,506
28356900,510
28366942,503
28376979,505
28386988,499
28397028,503
28407069,503
28417078,505
28427123,506
28437167,499
28447181,501
28457225,505
28467272,506
28477288,504
28487336,507
28497383,508
28507398,506
28517440,500
28527483,510
28537527,501
28547541,508
28557584,507
28567625,505
28577636,510
28587682,512
28597729,507
28607746,512
28617796,511
28627843,512
28637859,508
28647905,507
28657949,510
28667964,508
28678011,499
28688058,500
28698075,499
28708121,505
28718166,507
28728183,503
28738233,505
28748281,511
28758330,517
28768346,520
28778394,526
28788442,527
28798458,528
28808504,522
28818547,528
28828568,524
28838618,518
28848667,520
28858686,515
28868737,515
28878792,507
28888809,512
28898856,502
28908902,501
28918914,500
28928957,504
28939002,500
28949017,502
28959066,503
28969113,502
28979130,504
28989178,502
28999229,506
29009279,502
29019300,507
29029347,511
29039394,507
29049410,513
29059459,507
29069506,512
29079523,512
29089570,506
29099616,511
29109631,508
29119673,505
29129720,509
29139740,505
29149791,507
29159841,507
29169860,498
29179910,500
29189960,499
29199978,509
29210024,504
29220071,507
29230086,503
29240135,504
29250185,504
29260236,506
29270259,505
29280309,500
29290358,505
29300376,508
29310423,510
29320473,502
29330493,502
29340544,500
29350590,509
29360608,508
29370659,502
29380713,506
29390735,506
29400786,506
29410839,503
29420856,505
29430907,508
29440958,508
29450980,503
29461031,506
29471081,507
29481094,500
29491139,512
29501186,511
29511205,511
29521252,515
29531297,523
29541348,522
29551365,524
29561418,528
29571470,525
29581490,523
29591541,523
29601594,524
29611613,520
29621661,514
29631711,508
29641728,510
29651776,503
29661823,503
29671840,501
29681889,499
29691941,500
29701961,504
29712008,504
29722056,504
29732074,501
29742125,501
29752176,502
29762198,508
29772250,509
29782301,507
29792353,503
29802377,506
29812432,510
29822485,512
29832506,505
29842557,505
29852609,501
29862632,506
29872685,503
29882738,509
29892758,504
29902808,499
29912855,499
29922871,500
29932923,506
29942978,504
29952998,504
29963052,507
29973107,504
29983129,508
29993182,510
30003234,510
30013253,510
30023304,510
30033356,504
30043409,508
30053428,505
30063479,505
30073531,506
30083553,503
30093599,501
30103648,509
30113667,509
30123718,506
30133766,505
30143784,503
30153835,509
30163884,506
30173904,509
30183954,508
30194003,503
30204019,509
30214068,508
30224120,517
30234144,523
30244198,523
30254252,527
30264275,532
30274327,530
30284383,530
30294438,526
30304462,523
30314516,526
30324567,520
30334584,515
30344634,516
30354685,514
30364704,503
30374758,501
30384809,507
30394831,500
30404883,505
30414932,502
30424950,501
30435009,500
30445070,503
30455102,507
30465163,505
30475223,505
30485250,511
30495305,504
30505356,512
30515378,508
30525432,507
30535486,505
30545539,506
30555557,508
30565609,510
30575662,499
30585684,509
30595736,506
30605788,506
30615810,501
30625861,504
30635914,501
30645937,497
30655994,501
30666047,497
30676070,502
30686126,500
30696179,508
30706202,510
30716252,511
30726306,508
30736327,510
30746379,506
30756433,506
30766487,510
30776508,504
30786559,511
30796609,511
30806630,510
30816681,502
30826732,501
30836751,501
30846803,503
30856854,510
30866875,505
30876928,507
30886976,503
30896995,502
30907043,504
30917093,508
30927113,510
30937164,516
30947216,512
30957234,518
30967286,524
30977338,528
30987355,525
30997405,532
31007455,531
31017472,528
31027516,526
31037563,524
31047613,520
31057633,519
31067683,516
31077731,511
31087749,503
31097796,510
31107843,500
31117859,499
31127907,506
31137956,500
31147976,502
31158028,503
31168076,506
31178098,502
31188149,505
31198197,505
31208215,505
31218265,506
31228316,504
31238337,502
31248388,508
31258438,506
31268488,508
31278507,511
31288559,502
31298610,508
31308629,505
31318680,504
31328731,506
31338752,505
31348806,501
31358861,499
31368885,500
31378936,499
31388987,503
31399008,497
31409057,502
31419111,503
31429132,504
31439185,491
31449238,508
31459263,505
31469316,509
31479370,507
31489391,502
31499440,508
31509492,501
31519513,507
31529565,508
31539619,506
31549673,508
31559697,499
31569746,505
31579794,502
31589813,509
31599860,498
31609910,502
31619931,506
31629984,508
31640037,508
31650061,506
31660113,501
31670162,508
31680184,512
31690236,515
31700287,518
31710301,521
31720349,527
31730398,531
31740418,527
31750473,530
31760524,523
31770544,514
31780598,515
31790651,520
31800701,515
31810721,505
31820772,513
31830820,510
31840840,504
31850890,512
31860940,502
31870955,498
31881006,501
31891055,505
31901077,498
31911130,494
31921183,497
31931206,499
31941261,500
31951318,505
31961341,510
31971395,511
31981447,509
31991467,510
32001515,511
32011564,509
32021613,510
32031631,508
32041681,505
32051734,509
32061755,508
32071812,503
32081866,508
32091889,506
32101942,502
32111992,497
32122012,504
32132065,501
32142119,503
32152141,503
32162192,501
32172242,499
32182262,505
32192317,499
32202370,503
32212395,501
32222448,506
32232502,503
32242521,507
32252573,503
32262624,507
32272676,506
32282696,508
32292748,506
32302802,505
32312823,507
32322873,507
32332922,508
32342940,510
32352985,508
32363034,509
32373055,506
32383106,508
32393153,504
32403173,508
32413222,508
32423273,505
32433294,503
32443345,512
32453397,514
32463416,517
32473467,517
32483518,521
32493537,528
32503588,527
32513638,524
32523660,524
32533714,527
32543766,524
32553819,524
32563841,513
32573890,515
32583942,514
32593965,510
32604019,508
32614068,503
32624084,501
32634132,497
32644182,496
32654200,502
32664246,498
32674294,506
32684313,504
32694364,507
32704416,512
32714439,505
32724490,509
32734542,508
32744564,512
32754615,509
32764666,511
32774715,508
32784733,514
32794778,509
32804824,507
32814842,511
32824890,505
32834933,499
32844948,503
32854993,505
32865037,507
32875049,504
32885095,500
32895141,507
32905156,502
32915200,506
32925243,497
32935255,506
32945300,502
32955348,506
32965364,508
32975410,507
32985452,509
32995468,502
33005513,509
33015553,509
33025566,509
33035616,512
33045664,507
33055715,512
33065733,508
33075781,507
33085831,510
33095851,507
33105902,499
33115953,505
33125971,510
33136021,497
33146072,503
33156091,500
33166142,508
33176190,504
33186206,508
33196249,509
33206294,509
33216306,506
33226352,507
33236399,516
33246415,527
33256460,519
33266508,526
33276554,523
33286569,528
33296614,521
33306654,526
33316668,519
33326716,515
33336759,517
33346770,514
33356813,514
33366855,507
33376870,510
33386917,509
33396962,506
33406975,500
33417020,501
33427064,501
33437078,502
33447124,502
33457170,503
33467180,501
33477222,503
33487270,511
33497287,507
33507337,513
33517385,508
33527432,505
33537448,510
33547492,505
33557536,507
33567549,507
33577593,507
33587641,501
33597659,507
33607709,503
33617758,504
33627776,498
33637827,496
33647877,502
33657898,505
33667947,499
33677994,500
33688010,502
33698056,503
33708103,501
33718122,506
33728171,509
33738222,502
33748241,508
33758291,507
33768341,510
33778392,504
33788409,508
33798459,508
33808507,505
33818522,504
33828570,507
33838620,504
33848641,505
33858691,502
33868739,505
33878759,504
33888806,496
33898857,499
33908875,504
33918925,503
33928972,497
33938988,507
33949035,501
33959084,505
33969103,505
33979153,509
33989202,509
33999219,514
34009266,519
34019313,518
34029327,517
34039372,528
34049417,530
34059461,528
34069476,530
34079523,528
34089566,528
34099580,515
34109626,517
34119674,510
34129690,509
34139737,503
34149784,506
34159805,507
34169858,501
34179907,503
34189926,502
34199974,495
34210021,500
34220038,503
34230086,503
34240133,497
34250148,504
34260195,507
34270241,509
34280255,503
34290299,507
34300339,501
34310380,508
34320390,502
34330431,504
34340471,500
34350485,505
34360527,506
34370569,507
34380581,501
34390620,499
34400662,503
34410673,501
34420716,501
34430761,499
34440774,501
34450819,503
34460864,503
34470881,508
34480927,510
34490972,503
34500986,506
34511032,504
34521077,506
34531093,514
34541142,511
34551189,508
34561233,512
34571249,513
34581292,508
34591336,506
34601351,509
34611396,507
34621441,511
34631452,506
34641495,500
34651540,508
34661553,503
34671600,502
34681645,500
34691660,498
34701705,504
34711752,505
34721768,500
34731814,503
34741859,497
34751875,502
34761917,500
34771961,507
34781976,514
34792021,520
34802065,513
34812111,525
34822127,521
34832170,524
34842213,523
34852229,525
34862277,520
34872321,516
34882333,517
34892374,509
34902417,509
34912430,506
34922474,496
34932522,501
34942539,500
34952583,495
34962626,500
34972641,499
34982689,499
34992738,497
35002758,504
35012806,502
35022851,509
35032871,504
35042918,502
35052966,508
35063015,508
35073032,511
35083075,507
35093119,504
35103135,506
35113182,507
35123231,502
35133247,510
35143290,503
35153337,504
35163355,501
35173400,506
35183449,505
35193466,496
35203517,498
35213566,503
35223587,496
35233634,498
35243683,500
35253700,504
35263743,504
35273788,495
35283801,505
35293851,500
35303895,502
35313940,497
35323953,504
35334001,507
35344047,497
35354064,502
35364111,499
35374159,502
35384174,505
35394222,498
35404268,506
35414285,503
35424334,505
35434384,496
35444402,503
35454451,499
35464498,506
35474515,505
35484560,501
35494608,505
35504624,500
35514673,508
35524722,509
35534742,515
35544790,520
35554839,522
35564888,520
35574905,529
35584950,527
35594997,529
35605015,531
35615059,529
35625103,522
35635116,521
35645164,514
35655211,518
35665227,515
35675274,508
35685321,505
35695338,500
35705384,498
35715432,501
35725449,502
35735497,500
35745546,494
35755561,494
35765608,499
35775658,502
35785674,502
35795723,506
35805769,506
35815817,508
35825835,500
35835879,503
35845924,506
35855942,505
35865992,506
35876043,502
35886060,508
35896108,507
35906155,507
35916172,508
35926220,503
35936268,506
35946287,507
35956333,501
35966379,505
35976394,502
35986442,508
35996488,507
36006501,505
36016548,506
36026599,503
36036617,506
36046666,503
36056715,505
36066766,504
36076786,505
36086831,501
36096884,509
36106905,508
36116956,509
36127007,504
36137028,509
36147080,505
36157133,511
36167152,510
36177203,507
36187249,505
36197271,501
36207321,506
36217370,505
36227389,509
36237438,516
36247485,515
36257502,512
36267549,516
36277599,521
36287612,526
36297660,532
36307709,525
36317759,524
36327780,531
36337829,522
36347881,524
36357901,515
36367952,516
36378004,510
36388028,509
36398082,503
36408140,508
36418158,510
36428207,505
36438254,502
36448271,504
36458323,497
36468379,505
36478402,505
36488459,504
36498515,501
36508538,506
36518588,511
36528636,505
36538683,505
36548702,512
36558753,509
36568805,507
36578827,508
36588881,510
36598934,510
36608956,508
36619006,510
36629053,509
36639072,500
36649121,510
36659169,505
36669187,500
36679234,498
36689285,502
36699305,502
36709357,501
36719407,501
36729423,509
36739471,499
36749519,508
36759539,499
36769590,509
36779643,499
36789665,508
36799715,503
36809764,509
36819816,502
36829835,506
36839886,509
36849936,508
36859957,505
36870009,503
36880061,507
36890082,501
36900133,507
36910184,509
36920201,503
36930249,510
36940298,516
36950316,516
36960363,518
36970412,526
36980428,528
36990476,530
37000520,533
37010536,531
37020586,530
37030635,522
37040649,518
37050697,517
37060747,511
37070797,509
37080817,506
37090868,506
37100920,509
37110941,502
37120992,501
37131038,504
37141056,506
37151107,504
37161154,506
37171174,498
37181224,505
37191270,506
37201284,505
37211329,506
37221371,507
37231386,503
37241432,510
37251479,508
37261493,502
37271540,505
37281585,508
37291605,504
37301653,501
37311702,499
37321753,510
37331773,506
37341823,505
37351872,505
37361892,503
37371942,510
37381989,508
37392008,506
37402052,508
37412099,508
37422115,502
37432163,508
37442210,500
37452225,507
37462276,510
37472324,512
37482343,504
37492395,508
37502443,508
37512463,507
37522512,502
37532561,505
37542612,507
37552630,510
37562679,510
37572727,508
37582745,504
37592793,511
37602839,505
37612856,505
37622902,511
37632949,510
37642966,513
37653011,516
37663061,517
37673079,524
37683130,532
37693179,525
37703196,530
37713245,528
37723304,533
37733330,522
37743379,523
37753430,524
37763455,518
37773509,517
37783559,514
37793579,515
37803628,507
37813678,508
37823729,503
37833750,502
37843797,500
37853850,502
37863870,507
37873920,507
37883969,506
37893987,508
37904037,503
37914088,506
37924107,508
37934156,509
37944205,508
37954224,512
37964270,513
37974317,511
37984336,502
37994385,510
38004439,505
38014458,510
38024505,508
38034551,505
38044569,507
38054619,506
38064667,499
38074714,504
38084731,508
38094781,504
38104833,509
38114856,504
38124906,499
38134958,509
38144975,504
38155024,506
38165070,505
38175090,506
38185140,511
38195191,508
38205212,507
38215265,511
38225317,506
38235340,506
38245391,507
38255443,508
38265465,508
38275519,507
38285572,503
38295592,507
38305644,508
38315697,507
38325751,505
38335774,506
38345826,501
38355878,508
38365901,506
38375955,510
38386008,514
38396027,515
38406080,521
38416132,521
38426156,519
38436210,523
38446264,531
38456288,534
38466337,525
38476392,527
38486417,525
38496469,525
38506520,517
38516544,519
38526596,512
38536643,508
38546667,511
38556722,505
38566777,507
38576830,507
38586852,502
38596903,502
38606957,502
38616980,501
38627034,506
38637090,500
38647115,507
38657169,509
38667224,509
38677246,503
38687300,509
38697357,507
38707383,505
38717435,512
38727487,508
38737510,501
38747565,507
38757617,506
38767638,504
38777684,505
38787733,501
38797758,506
38807814,507
38817872,503
38827928,502
38837951,503
38848004,502
38858059,504
38868086,505
38878145,498
38888202,503
38898231,503
38908290,505
38918347,500
38928372,504
38938426,503
38948477,504
38958497,500
38968549,504
38978599,505
38988621,501
38998675,503
39008732,499
39018755,497
39028810,497
39038864,501
39048919,506
39058942,497
39068995,502
39079050,503
39089073,508
39099127,501
39109179,501
39119200,507
39129252,502
39139304,503
39149323,502
39159375,505
39169427,503
39179450,506
39189503,512
39199555,519
39209576,519
39219628,529
39229679,527
39239697,530
39249748,535
39259799,530
39269821,525
39279872,530
39289920,522
39299944,522
39309997,516
39320049,518
39330102,511
39340125,511
39350181,509
39360233,507
39370252,506
39380301,499
39390349,498
39400367,504
39410419,502
39420473,505
39430494,501
39440543,507
39450591,503
39460611,508
39470661,511
39480713,508
39490736,510
39500784,506
39510837,505
39520859,508
39530913,508
39540960,509
39550977,507
39561023,500
39571071,505
39581118,501
39591135,496
39601181,503
39611231,506
39621252,497
39631303,504
39641354,504
39651376,507
39661431,502
39671483,499
39681507,501
39691562,496
39701615,506
39711640,506
39721694,509
39731751,499
39741777,501
39751832,500
39761887,505
39771912,505
39781963,502
39792019,507
39802044,509
39812097,503
39822150,504
39832205,507
39842230,503
39852284,507
39862337,500
39872360,500
39882412,503
39892468,505
39902496,505
39912557,501
39922617,502
39932647,511
39942710,513
39952771,519
39962805,525
39972871,527
39982926,525
39992945,533
40003001,532
40013056,529
40023081,531
40033139,530
40043197,529
40053222,520
40063276,522
40073332,519
40083388,514
40093415,509
40103474,508
40113529,510
40123552,504
40133610,505
40143665,502
40153687,504
40163739,506
40173792,504
40183816,507
40193866,501
40203917,503
40213941,505
40223995,499
40234049,502
40244071,507
40254116,503
40264164,508
40274185,506
40284236,509
40294289,510
40304309,502
40314361,504
40324413,501
40334465,507
40344489,497
40354543,505
40364589,499
40374606,503
40384654,498
40394703,502
40404731,504
40414790,507
40424848,503
40434878,504
40444936,500
40454991,501
40465019,504
40475077,506
40485132,502
40495156,507
40505211,502
40515266,501
40525290,502
40535344,502
40545401,501
40555460,503
40565491,503
40575550,504
40585604,501
40595629,499
40605684,504
40615737,499
40625757,503
40635812,504
40645863,502
40655883,497
40665939,501
40675996,505
40686020,498
40696076,505
40706131,499
40716152,507
40726206,512
40736256,509
40746276,522
40756329,525
40766380,529
40776399,534
40786454,533
40796506,535
40806560,537
40816584,532
40826639,524
40836697,527
40846722,517
40856779,521
40866834,517
40876859,515
40886914,510
40896973,508
40906992,507
40917045,507
40927098,502
40937121,504
40947174,502
40957228,497
40967251,502
40977302,495
40987357,504
40997382,505
41007433,507
41017482,505
41027503,511
41037554,512
41047606,509
41057661,501
41067684,507
41077738,507
41087791,510
41097814,504
41107866,508
41117918,507
41127937,504
41137991,506
41148043,506
41158064,503
41168118,504
41178175,497
41188201,505
41198255,508
41208310,507
41218335,506
41228388,506
41238444,505
41248468,506
41258523,502
41268578,501
41278599,505
41288655,508
41298712,506
41308767,504
41318790,507
41328843,507
41338897,508
41348922,501
41358973,506
41369022,505
41379043,504
41389099,506
41399154,506
41409179,504
41419237,506
41429294,508
41439321,501
41449372,503
41459424,504
41469444,500
41479498,501
41489550,507
41499575,512
41509630,509
41519685,510
41529709,520
41539762,525
41549813,530
41559838,534
41569893,533
41579948,535
41590002,529
41600027,533
41610084,526
41620141,524
41630170,517
41640228,519
41650283,514
41660308,509
41670364,511
41680417,509
41690446,509
41700505,505
41710562,506
41720589,498
41730647,502
41740705,498
41750731,503
41760787,505
41770842,503
41780870,498
41790927,500
41800984,506
41811040,508
41821065,505
41831118,506
41841175,502
41851201,504
41861257,507
41871314,509
41881340,508
41891395,503
41901449,506
41911474,508
41921532,499
41931594,506
41941624,508
41951684,506
41961742,501
41971772,505
41981829,505
41991889,505
42001917,504
42011972,498
42022029,502
42032051,507
42042106,499
42052163,502
42062221,505
42072245,506
42082304,502
42092365,506
42102394,504
42112452,502
42122513,507
42132540,506
42142597,506
42152657,506
42162682,502
42172743,508
42182801,505
42192829,506
42202886,502
42212942,498
42222968,504
42233026,504
42243083,505
42253108,503
42263166,506
42273223,512
42283252,515
42293309,522
42303368,524
42313430,531
42323459,530
42333516,538
42343574,529
42353601,533
42363658,535
42373714,529
42383739,519
42393800,519
42403860,513
42413890,515
42423951,507
42434014,510
42444048,506
42454111,506
42464171,507
42474203,508
42484262,506
42494325,504
42504361,503
42514427,507
42524486,507
42534515,501
42544570,504
42554622,499
42564677,507
42574707,504
42584764,506
42594821,509
42604847,505
42614903,502
42624960,507
42634985,510
42645041,498
42655096,502
42665120,501
42675181,501
42685238,500
42695266,499
42705321,497
42715375,505
42725401,504
42735457,497
42745512,503
42755536,503
42765590,498
42775645,507
42785670,504
42795728,506
42805785,503
42815841,505
42825867,507
42835922,508
42845978,505
42856003,500
42866058,501
42876112,503
42886133,503
42896189,508
42906246,505
42916271,508
42926326,509
42936379,504
42946405,509
42956459,506
42966510,506
42976534,506
42986585,506
42996640,498
43006665,502
43016718,499
43026773,509
43036794,511
43046847,511
43056901,511
43066954,524
43076975,528
43087029,534
43097084,534
43107111,535
43117165,529
43127222,538
43137245,533
43147300,526
43157355,527
43167379,522
43177435,518
43187494,512
43197520,504
43207576,509
43217634,506
43227661,507
43237712,507
43247767,506
43257793,500
43267848,504
43277903,497
43287927,499
43297978,502
43308030,500
43318083,502
43328105,502
43338157,499
43348211,510
43358232,506
43368285,504
43378336,509
43388356,510
43398406,502
43408462,506
43418487,507
43428546,506
43438607,502
43448637,506
43458697,499
43468759,503
43478789,501
43488847,504
43498906,505
43508932,507
43518990,499
43529047,498
43539070,504
43549125,507
43559182,502
43569239,506
43579268,506
43589328,503
43599386,506
43609412,503
43619469,508
43629526,504
43639549,499
43649602,500
43659658,504
43669679,504
43679732,505
43689786,499
43699807,506
43709859,505
43719910,508
43729934,502
43739987,507
43750042,500
43760064,504
43770118,505
43780171,504
43790192,499
43800244,506
43810300,503
43820361,505
43830385,508
43840437,509
43850489,514
43860512,510
43870566,524
43880621,522
43890644,530
43900697,536
43910752,536
43920778,536
43930833,536
43940884,528
43950908,526
43960962,522
43971017,522
43981041,517
43991099,515
44001156,508
44011178,511
44021239,509
44031294,503
44041321,500
44051372,505
44061420,504
44071468,503
44081493,504
44091550,501
44101606,503
44111630,503
44121686,506
44131741,508
44141765,508
44151816,504
44161873,507
44171897,505
44181947,507
44192001,510
44202024,505
44212076,503
44222126,509
44232148,505
44242202,503
44252251,505
44262272,505
44272323,497
44282374,506
44292395,501
44302446,502
44312495,506
44322515,503
44332566,499
44342617,501
44352668,506
44362689,505
44372743,503
44382794,505
44392815,508
44402866,504
44412917,505
44422938,507
44432988,506
44443041,504
44453065,501
44463119,506
44473174,506
44483197,502
44493248,508
44503300,501
44513321,504
44523373,501
44533424,503
44543446,498
44553497,507
44563551,498
44573603,504
44583623,505
44593672,507
44603721,505
44613737,506
44623784,504
44633835,505
44643859,506
44653910,507
44663963,506
44673986,508
44684039,513
44694092,516
44704111,517
44714158,522
44724208,534
44734224,527
44744273,538
44754323,537
44764340,536
44774393,530
44784445,522
44794465,524
44804514,516
44814563,513
44824613,515
44834631,507
44844675,507
44854723,502
44864742,502
44874792,501
44884844,503
44894864,501
44904912,497
44914960,503
44924979,504
44935029,498
44945078,499
44955097,506
44965144,503
44975191,510
44985208,510
44995256,508
45005304,510
45015317,511
45025363,501
45035410,503
45045426,505
45055472,509
45065520,507
45075535,507
45085582,503
45095628,506
45105677,505
45115697,504
45125748,505
45135800,503
45145822,510
45155874,507
45165926,509
45175949,501
45185997,505
45196051,507
45206072,507
45216123,511
45226175,507
45236198,507
45246253,507
45256308,508
45266333,507
45276388,507
45286444,505
45296466,502
45306519,503
45316570,503
45326594,505
45336639,499
45346686,501
45356734,498
45366759,502
45376812,499
45386868,507
45396892,507
45406946,499
45417000,504
45427021,499
45437074,499
45447124,504
45457143,503
45467195,501
45477247,502
45487272,508
45497332,508
45507390,513
45517414,520
45527470,520
45537527,525
45547550,532
45557606,535
45567668,538
45577693,538
45587743,531
45597796,527
45607852,527
45617876,524
45627930,518
45637982,511
45648006,503
45658056,506
45668106,507
45678125,501
45688177,497
45698230,499
45708252,502
45718308,504
45728362,498
45738385,496
45748437,505
45758492,505
45768516,505
45778568,506
45788615,508
45798631,510
45808686,509
45818735,512
45828756,505
45838807,513
45848859,513
45858912,512
45868936,502
45878991,504
45889044,509
45899065,503
45909118,500
45919168,502
45929191,499
45939247,503
45949305,499
45959328,503
45969384,504
45979441,506
45989464,499
45999517,507
46009568,504
46019588,500
46029639,501
46039692,508
46049714,506
46059762,503
46069812,509
46079862,504
46089883,509
46099937,503
46109991,507
46120014,510
46130067,502
46140121,508
46150146,505
46160199,504
46170251,505
46180271,507
46190325,501
46200380,507
46210404,504
46220458,505
46230509,504
46240529,501
46250582,505
46260634,508
46270656,505
46280712,512
46290764,502
46300789,512
46310844,517
46320901,514
46330930,525
46340986,526
46351039,530
46361092,534
46371110,531
46381163,529
46391216,530
46401239,525
46411294,531
46421347,514
46431370,512
46441422,514
46451473,507
46461495,506
46471547,505
46481600,503
46491623,498
46501678,502
46511736,503
46521758,501
46531811,503
46541863,498
46551887,505
46561945,502
46571999,506
46582020,506
46592069,513
46602120,512
46612175,505
46622200,504
46632255,507
46642309,504
46652331,508
46662385,505
46672437,506
46682457,499
46692510,505
46702560,503
46712579,499
46722630,499
46732680,501
46742701,501
46752753,501
46762805,502
46772825,501
46782877,505
46792929,497
46802950,500
46813002,499
46823055,499
46833107,502
46843124,508
46853173,508
46863224,508
46873244,507
46883294,504
46893344,505
46903365,510
46913417,502
46923470,501
46933494,501
46943550,508
46953603,503
46963626,506
46973678,506
46983734,498
46993756,508
47003812,501
47013864,501
47023889,500
47033948,504
47044002,504
47054027,505
47064082,507
47074139,505
47084193,508
47094218,515
47104274,519
47114329,525
47124352,520
47134406,520
47144459,530
47154479,526
47164531,525
47174584,525
47184608,513
47194662,510
47204713,506
47214734,510
47224786,507
47234838,500
47244861,502
47254914,501
47264966,502
47274989,501
47285042,502
47295095,503
47305112,503
47315158,504
47325206,499
47335222,507
47345270,503
47355317,507
47365367,512
47375383,506
47385434,513
47395485,513
47405505,512
47415556,511
47425605,508
47435625,505
47445675,510
47455727,510
47465746,509
47475797,505
47485849,505
47495865,502
47505913,498
47515961,497
47525980,500
47536030,498
47546080,504
47556099,501
47566146,501
47576196,499
47586216,505
47596267,505
47606317,506
47616370,503
47626393,498
47636447,499
47646498,506
47656519,502
47666571,507
47676621,501
47686643,506
47696692,503
47706743,506
47716762,505
47726813,508
47736862,499
47746877,507
47756926,505
47766975,505
47776996,499
47787048,507
47797099,508
47807122,503
47817178,509
47827232,512
47837254,520
47847305,525
47857357,528
47867407,528
47877427,531
47887477,529
47897527,521
47907547,523
47917601,524
47927656,521
47937678,513
47947731,514
47957784,506
47967804,509
47977857,506
47987907,505
47997925,498
48007974,498
48018024,499
48028043,493
48038096,501
48048151,503
48058170,501
48068222,505
48078271,498
48088289,501
48098332,508
48108379,504
48118429,504
48128451,508
48138501,512
48148551,511
48158573,512
48168622,508
48178675,507
48188698,506
48198751,508
48208803,503
48218825,507
48228877,503
48238925,501
48248947,508
48259000,500
48269054,506
48279073,499
48289125,509
48299175,504
48309194,506
48319240,502
48329288,503
48339337,501
48349354,507
48359405,506
48369454,499
48379476,508
48389529,507
48399581,508
48409602,511
48419653,506
48429705,504
48439725,508
48449772,508
48459821,505
48469841,509
48479890,509
48489942,511
48499961,508
48510009,513
48520057,522
48530076,518
48540123,525
48550169,529
48560184,524
48570231,532
48580281,522
48590299,524
48600352,527
48610402,521
48620453,520
48630474,509
48640525,511
48650578,512
48660601,510
48670652,510
48680704,502
48690724,500
48700774,502
48710824,502
48720846,501
48730899,504
48740952,496
48750975,502
48761030,502
48771083,502
48781104,504
48791156,510
48801205,508
48811225,504
48821280,503
48831334,512
48841357,512
48851412,511
48861469,507
48871525,512
48881551,504
48891607,502
48901662,499
48911684,508
48921739,508
48931794,504
48941818,500
48951873,505
48961927,499
48971952,507
48982010,507
48992065,504
49002090,503
49012144,507
49022195,508
49032215,509
49042268,499
49052318,506
49062331,506
49072379,505
49082430,507
49092451,508
49102505,505
49112554,507
49122605,505
49132627,504
49142681,509
49152735,503
49162757,512
49172812,512
49182866,517
49192890,526
49202944,522
49213000,529
49223024,533
49233078,527
49243131,529
49253156,527
49263209,528
49273264,524
49283288,522
49293342,519
49303395,516
49313415,516
49323468,509
49333524,509
49343549,508
49353604,507
49363658,499
49373709,501
49383729,506
49393781,502
49403832,507
49413854,505
49423909,508
49433966,501
49443992,511
49454049,505
49464104,503
49474129,511
49484181,509
49494238,507
49504263,509
49514317,508
49524374,508
49534401,509
49544459,505
49554514,502
49564535,509
49574590,499
49584643,505
49594667,505
49604723,503
49614779,508
49624831,502
49634849,504
49644897,501
49654951,503
49664974,506
49675027,508
49685079,505
49695102,503
49705156,506
49715210,505
49725234,510
49735288,509
49745339,503
49755364,508
49765417,505
49775471,504
49785494,508
49795542,505
49805589,508
49815607,510
49825657,505
49835709,507
49845728,520
49855780,523
49865833,518
49875886,528
49885908,531
49895958,526
49906014,531
49916039,531
49926094,522
49936149,524
49946173,514
49956227,520
49966278,512
49976296,511
49986348,512
49996399,506
50006420,512
50016475,510
50026527,510
50036549,506
50046601,505
50056651,500
50066672,503
50076722,505
50086773,502
50096793,503
50106845,508
50116900,510
50126956,506
50136977,510
50147026,509
50157073,502
50167092,503
50177144,504
50187195,509
50197217,506
50207264,502
50217310,509
50227333,505
50237384,501
50247437,506
50257458,505
50267511,500
50277565,506
50287588,504
50297643,506
50307697,508
50317718,504
50327766,510
50337812,507
50347834,511
50357887,509
50367939,509
50377991,502
50388008,507
50398059,507
50408110,507
50418128,504
50428183,510
50438235,505
50448252,505
50458302,504
50468354,505
50478377,510
50488430,507
50498482,500
50508504,510
50518556,507
50528606,508
50538624,511
50548672,513
50558723,519
50568742,528
50578795,529
50588843,532
50598861,530
50608912,531
50618962,523
50629014,529
50639039,526
50649094,524
50659144,518
50669163,516
50679214,509
50689263,514
50699279,502
50709330,499
50719380,506
50729400,498
50739452,501
50749505,504
50759531,504
50769589,502
50779643,502
50789664,504
50799714,502
50809764,504
50819783,504
50829835,503
50839891,502
50849913,502
50859965,505
50870014,508
50880065,513
50890082,509
50900130,506
50910179,508
50920195,503
50930241,508
50940292,499
50950311,503
50960361,505
50970410,505
50980428,506
50990477,505
51000522,500
51010537,506
51020585,506
51030630,508
51040646,505
51050692,503
51060740,500
51070757,506
51080808,508
51090858,509
51100906,506
51110925,501
51120972,503
51131023,508
51141044,508
51151097,503
51161145,501
51171162,507
51181212,507
51191268,502
51201294,507
51211351,501
51221406,506
51231429,509
51241477,502
51251532,511
51261558,513
51271617,511
51281673,520
51291698,526
51301756,524
51311811,529
51321836,529
51331890,532
51341944,529
51351968,524
51362022,521
51372078,523
51382132,513
51392157,515
51402211,515
51412264,512
51422282,512
51432330,501
51442377,508
51452392,508
51462441,502
51472487,500
51482507,498
51492554,504
51502600,505
51512615,504
51522661,501
51532708,502
51542724,508
51552772,502
51562819,506
51572832,504
51582877,509
51592923,505
51602970,510
51612989,509
51623036,507
51633082,499
51643101,505
51653150,506
51663195,506
51673211,503
51683257,498
51693304,506
51703322,504
51713369,505
51723416,506
51733430,504
51743472,505
51753518,502
51763531,505
51773577,502
51783626,506
51793643,504
51803692,501
51813740,506
51823758,507
51833805,508
51843854,507
51853900,507
51863918,505
51873966,503
51884015,509
51894035,500
51904086,507
51914138,509
51924156,501
51934201,505
51944248,507
51954270,502
51964319,501
51974366,505
51984386,505
51994433,511
52004483,514
52014501,519
52024550,518
52034600,526
52044619,524
52054669,533
52064717,535
52074736,530
52084785,529
52094834,529
52104855,527
52114904,523
52124952,519
52135003,514
52145018,512
52155065,513
52165110,507
52175127,507
52185178,506
52195227,507
52205245,507
52215293,503
52225344,498
52235362,506
52245408,506
52255459,505
52265478,509
52275527,503
52285576,511
52295592,500
52305639,504
52315685,511
52325701,507
52335751,501
52345797,509
52355813,510
52365859,508
52375905,509
52385950,505
52395963,509
52406011,503
52416058,504
52426073,496
52436121,505
52446169,506
52456184,506
52466232,509
52476281,509
52486300,507
52496344,504
52506394,507
52516411,506
52526459,501
52536507,501
52546524,510
52556575,501
52566625,509
52576640,507
52586690,506
52596740,502
52606791,506
52616807,508
52626859,505
52636908,506
52646927,508
52656975,503
52667025,509
52677044,504
52687095,503
52697145,505
52707165,498
52717216,508
52727267,502
52737288,508
52747341,508
52757391,509
52767412,509
52777460,513
52787511,518
52797527,523
52807575,525
52817621,532
52827638,535
52837689,532
52847745,531
52857771,531
52867829,527
52877885,526
52887943,520
52897968,519
52908023,516
52918077,509
52928096,509
52938148,512
52948201,508
52958225,508
52968278,498
52978331,505
52988353,505
52998405,499
53008454,505
53018476,500
53028525,503
53038573,508
53048592,506
53058644,502
53068695,508
53078717,510
53088769,509
53098819,509
53108872,507
53118894,509
53128946,507
53138997,509
53149015,502
53159061,503
53169105,503
53179125,505
53189176,509
53199224,501
53209239,504
53219288,500
53229336,505
53239351,507
53249399,506
53259449,507
53269465,505
53279511,503
53289561,503
53299581,504
53309634,503
53319685,501
53329707,503
53339759,504
53349812,507
53359835,508
53369886,504
53379935,509
53389985,510
53400005,509
53410058,505
53420111,509
53430132,505
53440185,504
53450237,505
53460259,508
53470309,499
53480358,505
53490376,507
53500429,508
53510479,501
53520498,499
53530548,503
53540600,498
53550622,507
53560673,509
53570724,507
53580744,515
53590794,525
53600844,524
53610894,528
53620913,529
53630966,533
53641019,531
53651040,531
53661094,533
53671147,525
53681166,516
53691218,521
53701271,519
53711292,511
53721346,504
53731397,512
53741420,506
53751473,507
53761527,504
53771551,501
53781607,498
53791663,497
53801685,507
53811738,504
53821796,506
53831820,505
53841874,501
53851930,507
53861953,507
53872007,509
53882061,502
53892115,511
53902138,511
53912193,510
53922250,506
53932277,508
53942331,509
53952389,503
53962412,507
53972465,500
53982516,501
53992538,507
54002591,504
54012648,501
54022680,500
54032740,504
54042794,502
54052819,506
54062874,506
54072925,501
54082943,500
54092994,504
54103043,501
54113060,506
54123109,508
54133158,505
54143206,503
54153224,498
54163275,504
54173327,503
54183346,499
54193398,505
54203449,509
54213467,510
54223520,502
54233573,504
54243594,505
54253646,506
54263699,509
54273724,499
54283779,505
54293834,505
54303859,502
54313914,502
54323966,502
54333993,508
54344048,509
54354104,501
54364161,507
54374185,504
54384241,508
54394292,509
54404315,513
54414365,518
54424419,518
54434439,522
54444486,526
54454532,532
54464550,531
54474600,527
54484650,534
54494667,532
54504711,523
54514759,521
54524777,515
54534824,519
54544871,509
54554888,508
54564935,509
54574983,505
54585000,508
54595047,501
54605095,500
54615144,497
54625163,499
54635211,503
54645256,504
54655272,497
54665319,507
54675366,504
54685385,503
54695428,510
54705472,508
54715490,511
54725537,506
54735584,508
54745602,513
54755653,508
54765700,507
54775715,507
54785763,508
54795811,504
54805826,506
54815869,501
54825915,506
54835933,507
54845982,506
54856030,506
54866081,505
54876099,507
54886147,505
54896195,505
54906212,504
54916262,509
54926313,508
54936333,508
54946383,508
54956432,506
54966451,503
54976496,504
54986542,506
54996560,500
55006608,505
55016659,500
55026678,507
55036725,504
55046772,501
55056791,507
55066842,503
55076890,500
55086911,501
55096966,508
55107020,507
55117072,504
55127097,507
55137151,508
55147206,506
55157226,508
55167281,513
55177334,512
55187356,519
55197411,516
55207465,528
55217487,528
55227538,527
55237584,529
55247599,534
55257648,531
55267700,529
55277721,527
55287772,524
55297821,518
55307843,514
55317899,511
55327954,504
55337977,506
55348030,508
55358082,506
55368108,502
55378160,504
55388211,502
55398265,500
55408289,503
55418342,504
55428394,505
55438419,507
55448477,509
55458531,506
55468554,506
55478608,511
55488661,506
55498685,514
55508741,510
55518795,503
55528820,509
55538874,507
55548929,507
55558955,505
55569010,507
55579063,508
55589087,503
55599142,499
55609196,501
55619248,502
55629263,505
55639316,502
55649369,504
55659390,502
55669439,507
55679490,507
55689506,502
55699554,505
55709606,503
55719628,503
55729680,509
55739732,499
55749754,507
55759808,505
55769861,510
55779882,506
55789934,506
55799988,510
55810013,503
55820067,502
55830119,500
55840143,501
55850196,504
55860250,505
55870273,500
55880328,503
55890385,506
55900441,501
55910464,505
55920520,507
55930570,508
55940588,512
55950638,514
55960688,516
55970708,526
55980754,529
55990801,534
56000820,531
56010869,531
56020920,537
56030940,533
56040988,531
56051039,524
56061057,524
56071107,515
56081158,516
56091180,509
56101232,511
56111283,503
56121331,506
56131351,501
56141403,499
56151453,505
56161476,497
56171528,503
56181580,497
56191599,507
56201649,506
56211700,504
56221717,505
56231766,507
56241813,508
56251830,513
56261880,508
56271930,508
56281946,505
56291994,506
56302041,509
56312055,504
56322097,500
56332145,504
56342162,500
56352210,508
56362260,504
56372280,500
56382327,502
56392375,503
56402425,502
56412445,506
56422496,502
56432547,506
56442569,499
56452620,501
56462672,502
56472691,506
56482741,504
56492791,503
56502809,500
56512858,507
56522906,508
56532924,499
56542974,504
56553025,504
56563046,502
56573096,506
56583148,505
56593170,505
56603221,504
56613271,498
56623286,497
56633335,500
56643383,495
56653433,501
56663451,501
56673503,495
56683555,507
56693582,500
56703642,508
56713701,507
56723727,511
56733783,520
56743839,524
56753865,521
56763918,529
56773973,528
56783989,533
56794037,530
56804083,523
56814100,523
56824145,518
56834196,515
56844216,520
56854268,508
56864318,513
56874372,508
56884395,506
56894449,503
56904504,506
56914527,502
56924579,500
56934631,502
56944651,506
56954701,498
56964752,504
56974775,505
56984828,509
56994879,509
57004899,513
57014952,503
57025006,510
57035029,512
57045082,508
57055133,509
57065154,502
57075206,508
57085258,506
57095278,500
57105328,500
57115375,503
57125423,502
57135438,502
57145486,504
57155539,496
57165559,502
57175608,503
57185656,504
57195672,503
57205723,508
57215772,507
57225790,499
57235843,506
57245895,508
57255916,507
57265967,511
57276018,505
57286039,509
57296088,503
57306139,506
57316160,504
57326208,509
57336257,511
57346277,502
57356328,508
57366382,510
57376404,507
57386458,503
57396504,508
57406551,504
57416567,505
57426615,502
57436664,506
57446682,502
57456732,510
57466779,502
57476799,509
57486847,511
57496896,516
57506914,517
57516967,522
57527018,530
57537037,528
57547087,538
57557137,538
57567157,528
57577208,536
57587258,528
57597274,521
57607322,526
57617371,517
57627389,514
57637436,513
57647481,508
57657529,507
57667545,500
57677589,499
57687635,495
57697650,504
57707694,502
57717739,496
57727757,501
57737803,499
57747851,507
57757867,500
57767916,508
57777965,513
57787982,512
57798031,513
57808080,511
57818096,511
57828142,503
57838189,511
57848205,505
57858252,512
57868300,506
57878320,507
57888371,501
57898419,499
57908467,501
57918489,504
57928539,507
57938591,504
57948612,498
57958661,505
57968709,503
57978726,502
57988770,503
57998820,497
58008841,505
58018894,499
58028945,507
58038967,503
58049021,499
58059073,510
58069091,506
58079141,506
58089195,506
58099217,506
58109272,508
58119329,508
58129382,505
58139402,506
58149452,508
58159499,504
58169519,501
58179568,507
58189617,508
58199637,510
58209687,507
58219735,504
58229753,507
58239803,507
58249854,507
58259872,511
58269920,508
58279967,514
58289987,522
58300037,528
58310090,531
58320113,533
58330167,532
58340219,533
58350239,534
58360291,532
58370343,525
58380364,520
58390417,515
58400468,515
58410520,510
58420540,510
58430588,506
58440641,496
58450663,502
58460714,497
58470763,501
58480782,502
58490833,498
58500887,500
58510909,502
58520959,499
58531009,506
58541031,505
58551081,509
58561132,514
58571151,507
58581201,508
58591249,511
58601270,507
58611322,504
58621376,506
58631431,504
58641456,507
58651511,498
58661564,497
58671587,501
58681644,505
58691701,504
58701725,501
58711777,505
58721831,507
58731852,507
58741906,505
58751960,509
58761981,506
58772032,510
58782082,509
58792104,508
58802158,508
58812214,501
58822238,506
58832293,506
58842349,509
58852373,502
58862429,511
58872484,508
58882536,507
58892559,506
58902612,511
58912664,502
58922686,501
58932739,504
58942791,504
58952815,504
58962870,501
58972925,502
58982948,500
58993005,508
59003062,508
59013086,507
59023139,508
59033192,511
59043213,510
59053265,519
59063318,522
59073342,526
59083397,531
59093454,530
59103478,533
59113532,525
59123590,533
59133617,529
59143674,516
59153731,517
59163786,516
59173811,513
59183869,513
59193925,510
59203951,502
59214009,501
59224070,504
59234099,496
59244160,497
59254221,494
59264250,500
59274315,504
59284380,507
59294409,504
59304465,508
59314518,508
59324542,509
59334596,511
59344651,509
59354672,504
59364724,512
59374776,510
59384830,501
59394855,508
59404910,510
59414965,506
59424990,508
59435043,508
59445092,498
59455115,509
59465168,497
59475223,502
59485247,504
59495303,505
59505355,504
59515373,507
59525424,505
59535474,504
59545495,507
59555546,510
59565596,503
59575614,500
59585663,506
59595712,504
59605733,510
59615785,510
59625840,507
59635860,503
59645906,504
59655955,508
59666006,508
59676027,509
59686079,501
59696133,503
59706155,508
59716207,503
59726256,506
59736278,509
59746333,508
59756386,501
59766412,512
59776467,515
59786520,520
59796545,521
59806601,526
59816658,534
59826684,535
59836738,533
59846791,534
59856814,536
59866871,532
59876926,531
59886948,529
59897002,520
59907054,521
59917105,516
59927127,511
59937179,508
59947231,508
59957252,505
59967308,501
59977362,505
59987383,495
59997435,504
60007485,496
60017504,496
60027554,503
60037601,509
60047623,505
60057676,512
60067729,515
60077750,518
60087803,512
60097855,508
60107876,514
60117924,516
60127973,512
60138023,512
60148042,514
60158091,514
60168139,513
60178157,515
60188206,510
60198253,510
60208272,502
60218321,504
60228370,507
60238387,502
60248434,499
60258484,508
60268498,505
60278543,504
60288590,507
60298606,503
60308655,502
60318710,500
60328733,506
60338786,506
60348838,510
60358860,510
60368910,510
60378962,508
60389013,510
60399036,503
60409091,509
60419144,504
60429163,504
60439217,504
60449265,500
60459286,509
60469338,506
60479387,506
60489407,508
60499458,517
60509514,520
60519537,525
60529590,524
60539642,531
60549664,530
60559716,528
60569771,529
60579794,525
60589844,528
60599896,525
60609919,521
60619971,519
60630019,513
60640036,507
60650086,507
60660135,507
60670184,506
60680201,497
60690248,502
60700298,503
60710318,501
60720369,504
60730421,506
60740438,501
60750487,502
60760534,505
60770552,512
60780603,513
60790653,507
60800673,503
60810723,512
60820773,506
60830792,508
60840844,509
60850893,511
60860915,506
60870967,506
60881019,506
60891040,503
60901090,501
60911142,505
60921196,499
60931217,501
60941269,505
60951323,511
60961344,508
60971396,505
60981446,506
60991464,508
61001514,508
61011564,501
61021583,507
61031628,503
61041674,505
61051691,505
61061745,509
61071800,505
61081825,505
61091882,508
61101931,501
61111951,510
61121999,509
61132048,503
61142066,508
61152110,513
61162154,508
61172196,517
61182213,518
61192262,528
61202314,527
61212335,531
61222389,529
61232440,533
61242460,530
61252511,525
61262560,527
61272580,526
61282631,522
61292683,511
61302701,512
61312751,514
61322799,509
61332818,508
61342872,510
61352923,503
61362940,503
61372989,504
61383039,498
61393086,501
61403102,504
61413149,499
61423195,504
61433214,506
61443261,508
61453310,505
61463326,512
61473374,510
61483422,512
61493439,507
61503485,503
61513534,501
61523552,503
61533600,505
61543646,501
61553661,503
61563706,506
61573750,505
61583767,502
61593813,504
61603859,506
61613874,501
61623922,500
61633970,502
61643987,499
61654035,506
61664083,507
61674133,511
61684149,504
61694196,502
61704244,503
61714259,508
61724305,509
61734352,508
61744367,507
61754412,510
61764459,506
61774478,509
61784522,508
61794563,506
61804576,503
61814620,508
61824666,511
61834686,508
61844735,507
61854783,518
61864802,519
61874847,518
61884892,522
61894940,526
61904957,532
61915004,529
61925049,530
61935065,524
61945110,523
61955153,527
61965165,517
61975209,518
61985256,517
61995269,507
62005314,508
62015361,512
62025377,503
62035421,502
62045466,503
62055478,502
62065522,499
62075565,503
62085578,505
62095624,500
62105672,498
62115686,502
62125731,503
62135780,506
62145793,500
62155841,500
62165888,506
62175938,505
62185954,504
62196001,510
62206050,508
62216070,503
62226118,509
62236169,506
62246185,508
62256234,506
62266282,502
62276299,508
62286349,505
62296400,504
62306419,510
62316468,505
62326515,503
62336531,506
62346581,499
62356630,506
62366648,506
62376702,504
62386753,506
62396804,504
62406827,508
62416877,503
62426926,500
62436945,507
62446997,507
62457048,505
62467068,501
62477122,502
62487177,507
62497197,503
62507249,500
62517302,506
62527323,507
62537376,503
62547426,509
62557446,518
62567501,525
62577554,522
62587575,529
62597628,531
62607679,536
62617701,536
62627754,534
62637805,534
62647822,529
62657871,526
62667918,521
62677970,517
62687991,517
62698037,513
62708088,509
62718106,506
62728156,507
62738207,508
62748227,508
62758277,507
62768326,505
62778345,502
62788393,502
62798442,499
62808464,503
62818516,505
62828564,501
62838583,505
62848630,502
62858678,503
62868693,508
62878741,506
62888784,503
62898834,508
62908856,503
62918909,509
62928963,501
62938983,500
62949039,504
62959092,503
62969113,499
62979165,493
62989218,499
62999240,506
63009294,503
63019347,506
63029368,499
63039419,505
63049472,507
63059494,509
63069541,507
63079588,500
63089606,510
63099655,504
63109704,503
63119722,504
63129772,501
63139824,501
63149842,507
63159890,503
63169940,502
63179992,502
63190011,505
63200062,500
63210113,505
63220132,507
63230179,500
63240230,507
63250256,499
63260313,509
63270373,509
63280398,508
63290454,504
63300505,517
63310520,521
63320569,523
63330620,527
63340640,530
63350692,532
63360738,532
63370756,530
63380808,534
63390861,527
63400883,525
63410937,523
63420989,524
63431044,514
63441064,509
63451114,509
63461162,506
63471180,503
63481231,508
63491283,506
63501305,502
63511356,504
63521409,504
63531432,506
63541482,503
63551532,503
63561550,495
63571597,499
63581645,499
63591665,509
63601715,502
63611766,507
63621785,510
63631836,502
63641885,511
63651934,505
63661951,505
63671998,506
63682050,505
63692067,499
63702112,508
63712160,508
63722176,508
63732225,502
63742276,504
63752295,501
63762342,503
63772388,503
63782406,501
63792451,504
63802497,503
63812513,504
63822560,506
63832606,506
63842625,508
63852675,508
63862724,503
63872743,505
63882791,501
63892837,504
63902854,506
63912904,510
63922953,504
63933003,506
63943022,506
63953073,504
63963121,504
63973140,506
63983190,503
63993240,505
64003258,502
64013307,509
64023357,506
64033379,504
64043431,506
64053483,501
64063505,504
64073557,503
64083604,504
64093624,505
64103675,511
64113723,516
64123741,513
64133791,524
64143840,528
64153890,527
64163907,524
64173955,534
64183999,530
64194014,530
64204059,530
64214102,523
64224119,522
64234166,520
64244210,519
64254224,516
64264269,516
64274314,513
64284329,505
64294377,513
64304424,501
64314438,506
64324482,509
64334530,498
64344542,505
64354585,499
64364628,498
64374642,508
64384688,508
64394735,497
64404752,506
64414800,508
64424845,502
64434890,512
64444905,507
64454952,507
64465001,506
64475019,506
64485069,512
64495116,509
64505132,503
64515184,509
64525242,501
64535269,504
64545327,506
64555383,507
64565407,501
64575463,506
64585520,504
64595540,506
64605590,500
64615639,509
64625658,507
64635706,504
64645755,507
64655805,505
64665823,503
64675870,498
64685917,504
64695935,507
64705983,505
64716031,500
64726047,503
64736093,509
64746141,510
64756157,504
64766203,510
64776247,509
64786260,507
64796302,508
64806345,506
64816360,508
64826410,505
64836457,508
64846472,505
64856515,503
64866560,505
64876574,497
64886617,501
64896663,503
64906710,500
64916727,501
64926776,506
64936824,509
64946844,509
64956894,517
64966944,521
64976960,519
64987004,531
64997052,530
65007068,537
65017114,537
65027161,526
65037177,531
65047225,520
65057275,528
65067296,516
65077343,520
65087389,516
65097408,517
65107457,508
65117506,513
65127524,508
65137571,505
65147620,506
65157671,504
65167691,504
65177741,502
65187790,506
65197807,507
65207856,499
65217906,507
65227922,506
65237965,501
65248011,510
65258027,508
65268077,508
65278125,506
65288143,504
65298193,508
65308242,511
65318259,502
65328306,509
65338354,499
65348374,500
65358424,500
65368474,496
65378492,506
65388538,506
65398586,505
65408604,500
65418653,508
65428699,504
65438748,501
65448767,509
65458815,508
65468864,502
65478888,508
65488940,510
65498993,509
65509016,511
65519066,509
65529116,506
65539134,508
65549181,503
65559230,507
65569250,503
65579301,506
65589354,505
65599376,506
65609426,505
65619479,506
65629503,500
65639558,506
65649609,501
65659660,500
65669681,501
65679729,499
65689778,499
65699797,500
65709846,503
65719898,504
65729920,503
65739971,509
65750022,507
65760044,510
65770102,512
65780165,518
65790194,526
65800254,522
65810303,533
65820321,526
65830368,535
65840418,530
65850438,525
65860488,528
65870542,521
65880565,520
65890618,520
65900673,514
65910725,514
65920745,512
65930797,514
65940851,506
65950875,504
65960928,508
65970982,496
65981006,497
65991062,498
66001113,503
66011138,504
66021194,503
66031249,505
66041271,503
66051325,507
66061377,508
66071398,506
66081450,506
66091504,509
66101529,505
66111585,503
66121642,509
66131666,509
66141718,509
66151771,500
66161825,499
66171853,506
66181910,507
66191969,505
66201996,500
66212055,506
66222113,508
66232139,503
66242197,506
66252258,508
66262289,500
66272344,506
66282400,502
66292427,505
66302481,503
66312532,500
66322555,508
66332609,509
66342662,508
66352686,504
66362740,509
66372793,503
66382816,503
66392873,507
66402932,505
66412959,500
66423013,507
66433068,499
66443126,506
66453153,507
66463210,502
66473264,503
66483290,498
66493347,506
66503404,503
66513429,504
66523481,504
66533534,505
66543556,508
66553611,509
66563667,509
66573688,514
66583740,516
66593795,525
66603819,525
66613872,528
66623925,535
66633948,540
66643999,540
66654052,536
66664075,533
66674132,524
66684183,528
66694235,523
66704260,521
66714318,512
66724375,514
66734401,506
66744460,506
66754516,509
66764541,507
66774598,500
66784650,505
66794673,498
66804729,502
66814784,502
66824807,501
66834858,500
66844909,501
66854931,503
66864979,508
66875032,508
66885056,509
66895109,500
66905161,506
66915215,511
66925237,507
66935289,503
66945342,510
66955361,508
66965413,508
66975465,511
66985486,500
66995535,501
67005586,505
67015610,498
67025663,501
67035719,500
67045743,508
67055803,505
67065864,504
67075893,500
67085955,504
67096015,505
67106044,500
67116100,505
67126158,505
67136186,504
67146247,503
67156304,498
67166365,502
67176395,505
67186451,508
67196507,504
67206530,507
67216583,510
67226635,507
67236657,500
67246713,509
67256768,503
67266793,510
67276848,504
67286901,506
67296926,503
67306975,504
67317028,503
67327054,503
67337109,508
67347162,504
67357185,507
67367243,507
67377300,500
67387325,511
67397380,514
67407431,519
67417451,518
67427499,528
67437548,528
67447600,534
67457622,531
67467675,533
67477730,534
67487753,527
67497807,529
67507864,526
67517890,519
67527946,515
67538001,510
67548025,511
67558080,511
67568137,508
67578163,504
67588217,497
67598273,498
67608297,493
67618354,502
67628409,505
67638433,503
67648487,505
67658539,506
67668589,510
67678610,503
67688663,511
67698719,503
67708741,507
67718794,502
67728845,511
67738862,509
67748912,507
67758961,504
67768981,504
67779034,503
67789085,505
67799108,507
67809160,504
67819211,506
67829233,500
67839285,504
67849337,499
67859355,503
67869404,504
67879457,502
67889482,504
67899535,509
67909585,506
67919635,506
67929653,503
67939700,500
67949746,508
67959766,508
67969814,504
67979863,505
67989882,508
67999934,504
68009983,506
68020000,509
68030051,504
68040101,504
68050119,508
68060169,509
68070222,506
68080242,504
68090295,501
68100348,495
68110368,502
68120417,495
68130472,498
68140494,502
68150547,504
68160602,509
68170627,507
68180681,501
68190736,504
68200789,503
68210811,508
68220866,510
68230920,517
68240945,522
68251003,525
68261057,522
68271079,533
68281130,538
68291183,539
68301206,538
68311259,531
68321314,526
68331336,530
68341394,522
68351453,514
68361480,515
68371535,509
68381587,510
68391612,508
68401665,501
68411714,504
68421735,502
68431786,503
68441840,500
68451898,504
68461924,497
68471980,499
68482033,504
68492055,505
68502110,506
68512163,501
68522185,506
68532241,508
68542298,509
68552321,511
68562369,509
68572422,504
68582442,508
68592497,503
68602554,499
68612581,508
68622638,498
68632692,505
68642715,505
68652770,505
68662823,496
68672879,501
68682904,502
68692957,502
68703012,507
68713031,505
68723085,498
68733139,498
68743162,506
68753215,499
68763266,508
68773288,502
68783338,499
68793387,504
68803404,504
68813451,503
68823500,506
68833518,506
68843567,506
68853615,506
68863634,506
68873683,504
68883737,507
68893760,506
68903812,507
68913861,503
68923885,506
68933942,499
68943999,508
68954054,500
68964075,506
68974121,505
68984167,508
68994188,505
69004236,504
69014286,501
69024304,505
69034351,507
69044399,509
69054417,504
69064468,511
69074518,515
69084535,518
69094582,529
69104632,528
69114650,532
69124696,531
69134742,533
69144765,535
69154814,530
69164863,528
69174916,524
69184937,516
69194989,518
69205042,514
69215062,501
69225111,502
69235161,504
69245183,502
69255232,501
69265281,497
69275301,498
69285350,497
69295398,501
69305415,509
69315462,506
69325511,505
69335528,509
69345579,511
69355628,507
69365650,496
69375702,510
69385754,510
69395776,512
69405827,513
69415881,516
69425900,511
69435948,505
69445998,507
69456048,504
69466068,505
69476117,506
69486166,509
69496186,502
69506240,502
69516298,506
69526320,507
69536373,503
69546423,502
69556445,505
69566496,505
69576543,508
69586560,504
69596608,507
69606657,502
69616677,506
69626728,503
69636777,506
69646798,504
69656849,507
69666902,507
69676922,492
69686971,495
69697021,505
69707072,501
69717094,499
69727146,502
69737199,510
69747214,505
69757265,506
69767319,509
69777344,508
69787396,509
69797446,502
69807468,507
69817519,506
69827567,515
69837587,511
69847637,526
69857686,527
69867705,529
69877753,533
69887804,538
69897826,540
69907877,537
69917929,530
69927948,526
69937999,522
69948045,522
69958096,523
69968117,516
69978166,514
69988214,504
69998235,499
70008285,502
70018335,497
70028357,502
70038405,501
70048454,495
70058478,495
70068530,495
70078583,501
70088603,500
70098654,505
70108708,504
70118732,508
70128788,504
70138842,510
70148866,512
70158921,511
70168973,509
70179025,512
70189047,509
70199099,509
70209150,510
70219170,498
70229221,506
70239271,506
70249290,508
70259344,502
70269399,497
70279423,505
70289477,498
70299532,507
70309553,507
70319603,506
70329654,498
70339675,505
70349730,504
70359782,505
70369806,506
70379859,501
70389914,505
70399936,504
70409990,512
70420044,504
70430067,508
70440123,505
70450177,509
70460230,503
70470252,507
70480301,501
70490347,507
70500367,499
70510412,505
70520463,506
70530482,505
70540530,504
70550582,504
70560602,499
70570653,506
70580703,502
70590721,509
70600769,514
70610816,514
70620833,523
70630883,521
70640934,532
70650954,534
70661004,532
70671057,533
70681108,535
70691129,532
70701180,527
70711232,523
70721251,514
70731301,519
70741353,512
70751374,504
70761424,506
70771476,499
70781500,502
70791554,503
70801605,503
70811631,498
70821681,498
70831731,503
70841752,501
70851800,506
70861847,504
70871867,510
70881925,511
70891981,512
70902004,513
70912053,511
70922101,506
70932153,515
70942175,507
70952225,509
70962273,504
70972291,503
70982340,504
70992393,507
71002415,502
71012468,505
71022522,496
71032544,505
71042597,498
71052651,506
71062673,497
71072725,508
71082780,497
71092804,506
71102859,504
71112914,508
71122940,503
71132997,509
71143052,502
71153078,500
71163134,502
71173190,505
71183245,509
71193266,506
71203320,502
71213372,508
71223395,496
71233449,508
71243497,503
71253519,506
71263572,508
71273626,508
71283654,507
71293711,503
71303767,508
71313793,503
71323850,506
71333906,501
71343931,505
71353982,503
71364034,511
71374059,509
71384116,514
71394166,523
71404189,531
71414245,536
71424301,533
71434327,538
71444389,537
71454451,536
71464511,527
71474534,530
71484589,521
71494646,519
71504674,508
71514729,508
71524783,504
71534805,495
71544854,503
71554906,497
71564928,499
71574983,500
71585039,506
71595066,506
71605123,504
71615180,505
71625208,507
71635267,505
71645324,502
71655351,511
71665408,503
71675466,509
71685491,502
71695543,509
71705597,504
71715651,510
71725679,510
71735737,507
71745795,512
71755820,508
71765875,504
71775931,495
71785959,505
71796015,500
71806070,506
71816097,501
71826155,503
71836210,503
71846235,506
71856287,506
71866340,507
71876362,506
71886417,508
71896469,506
71906490,509
71916541,507
71926591,510
71936643,505
71946667,508
71956719,503
71966772,505
71976794,499
71986848,505
71996900,499
72006920,505
72016972,504
72027025,506
72037047,506
72047096,502
72057146,504
72067167,497
72077216,504
72087267,506
72097287,499
72107337,509
72117389,509
72127411,516
72137462,514
72147515,520
72157535,533
72167587,530
72177638,532
72187689,541
72197711,536
72207765,538
72217821,536
72227846,523
72237902,528
72247961,523
72257984,515
72268037,516
72278091,503
72288115,504
72298173,503
72308226,502
72318249,503
72328305,495
72338357,500
72348381,502
72358435,501
72368487,503
72378507,506
72388561,503
72398616,505
72408640,508
72418697,511
72428750,506
72438774,514
72448824,512
72458873,509
72468927,505
72478952,503
72489008,511
72499061,511
72509084,502
72519141,506
72529198,499
72539223,505
72549278,506
72559333,506
72569357,496
72579411,503
72589465,504
72599486,505
72609537,498
72619589,500
72629610,507
72639659,508
72649710,503
72659732,510
72669785,509
72679838,507
72689894,503
72699917,512
72709969,509
72720018,504
72730039,508
72740088,509
72750135,506
72760155,509
72770205,506
72780254,501
72790272,508
72800320,509
72810367,503
72820385,496
72830430,505
72840478,501
72850498,507
72860548,516
72870596,514
72880614,524
72890663,527
72900712,532
72910730,527
72920779,536
72930829,534
72940850,532
72950900,523
72960951,522
72971002,518
72981019,512
72991067,514
73001118,502
73011138,501
73021193,505
73031247,500
73041267,501
73051317,493
73061363,497
73071379,497
73081427,503
73091478,504
73101496,497
73111545,503
73121593,506
73131609,510
73141657,513
73151706,512
73161723,512
73171775,513
73181830,512
73191883,507
73201906,509
73211962,512
73222020,510
73232045,502
73242101,507
73252156,506
73262181,498
73272235,498
73282287,503
73292309,499
73302358,502
73312409,505
73322431,499
73332483,495
73342535,497
73352558,497
73362613,507
73372667,505
73382689,501
73392742,509
73402793,509
73412814,507
73422866,505
73432920,504
73442972,509
73452993,505
73463046,510
73473096,509
73483115,510
73493164,504
73503214,504
73513233,506
73523281,508
73533327,499
73543336,505
73553382,511
73563428,509
73573443,518
73583487,524
73593534,523
73603550,531
73613594,535
73623640,532
73633657,538
73643704,531
73653751,529
73663766,529
73673812,517
73683857,519
73693902,514
73703917,511
73713965,510
73724012,502
73734026,482
73744070,496
73754117,492
73764133,492
73774179,498
73784224,499
73794241,503
73804287,505
73814333,502
73824348,505
73834393,506
73844438,510
73854451,509
73864500,511
73874548,510
73884563,511
73894606,511
73904647,506
73914660,510
73924705,501
73934751,507
73944798,501
73954812,496
73964855,506
73974900,498
73984917,503
73994965,506
74005016,504
74015038,501
74025089,496
74035138,505
74045151,507
74055197,508
74065243,503
74075259,506
74085304,504
74095352,504
74105369,503
74115417,501
74125462,505
74135476,508
74145521,506
74155568,512
74165584,510
74175629,511
74185674,506
74195725,506
74205746,511
74215794,511
74225834,503
74235850,501
74245897,511
74255947,509
74265965,516
74276014,521
74286063,524
74296079,528
74306127,528
74316175,523
74326193,536
74336241,533
74346288,529
74356305,528
74366350,529
74376395,527
74386409,514
74396459,509
74406507,515
74416525,510
74426570,506
74436617,503
74446632,501
74456679,497
74466727,494
74476774,503
74486792,497
74496842,489
74506892,502
74516909,508
74526956,510
74537002,512
74547020,514
74557070,511
74567119,516
74577136,516
74587185,515
74597234,513
74607252,513
74617299,512
74627348,505
74637365,507
74647415,500
74657462,499
74667479,509
74677526,499
74687575,506
74697621,506
74707635,498
74717680,507
74727725,499
74737741,503
74747792,507
74757842,509
74767862,511
74777913,508
74787962,506
74797975,506
74808019,506
74818067,507
74828086,509
74838134,509
74848180,511
74858198,505
74868249,506
74878296,508
74888313,511
74898360,507
74908406,507
74918421,509
74928466,509
74938519,519
74948539,518
74958590,523
74968640,523
74978690,524
74988705,530
74998752,531
75008795,535
75018808,524
75028854,529
75038898,524
75048914,520
75058965,523
75069018,509
75079037,507
75089085,506
75099133,499
75109151,498
75119198,494
75129247,487
75139265,489
75149315,494
75159365,492
75169383,491
75179434,492
75189485,494
75199503,499
75209551,504
75219601,507
75229651,507
75239667,510
75249715,512
75259763,508
75269780,513
75279830,511
75289879,512
75299897,509
75309942,509
75319988,510
75330006,508
75340053,507
75350100,502
75360116,510
75370161,502
75380210,499
75390225,502
75400271,505
75410319,507
75420337,502
75430383,505
75440431,499
75450447,507
75460492,508
75470540,506
75480589,503
75490608,500
75500657,505
75510706,502
75520725,507
75530772,497
75540818,506
75550836,505
75560885,504
75570935,498
75580953,503
75590998,509
75601044,505
75611060,516
75621108,520
75631154,527
75641171,532
75651218,532
75661266,542
75671283,541
75681332,540
75691381,535
75701432,529
75711453,528
75721504,519
75731553,520
75741572,510
75751624,512
75761677,507
75771700,495
75781749,499
75791802,497
75801819,494
75811865,493
75821917,483
75831938,496
75841992,500
75852043,499
75862066,506
75872117,507
75882169,512
75892189,505
75902241,511
75912291,509
75922312,516
75932359,508
75942408,506
75952428,513
75962479,513
75972529,511
75982577,510
75992594,504
76002640,502
76012689,510
76022711,505
76032762,504
76042812,497
76052833,505
76062884,506
76072936,504
76082954,508
76093006,508
76103056,511
76113073,512
76123124,509
76133175,513
76143195,512
76153243,509
76163295,505
76173316,513
76183368,511
76193418,511
76203470,503
76213490,509
76223541,509
76233591,506
76243606,505
76253656,509
76263704,508
76273723,512
76283772,515
76293818,522
76303835,529
76313880,531
76323928,527
76333944,535
76343992,527
76354043,527
76364062,530
76374113,528
76384163,522
76394183,517
76404232,509
76414278,511
76424296,511
76434345,500
76444394,503
76454446,505
76464468,502
76474521,498
76484571,500
76494589,500
76504640,496
76514687,494
76524707,502
76534758,500
76544809,504
76554828,508
76564875,510
76574923,514
76584942,512
76594991,508
76605038,513
76615058,508
76625106,508
76635156,502
76645175,510
76655225,504
76665274,506
76675292,502
76685340,502
76695388,506
76705403,502
76715451,507
76725501,503
76735549,511
76745567,507
76755618,500
76765668,511
76775687,509
76785736,509
76795786,510
76805807,508
76815857,505
76825905,510
76835925,506
76845974,503
76856024,509
76866042,500
76876084,505
76886130,510
76896146,507
76906195,503
76916245,504
76926263,506
76936313,507
76946361,514
76956378,512
76966425,516
76976467,524
76986512,531
76996526,531
77006571,537
77016622,533
77026639,528
77036687,525
77046738,526
77056756,529
77066806,523
77076853,520
77086870,517
77096916,508
77106964,504
77116976,512
77127023,500
77137071,507
77147085,502
77157131,500
77167179,496
77177200,502
77187251,502
77197299,503
77207348,503
77217364,503
77227413,506
77237463,503
77247483,508
77257535,504
77267585,505
77277603,507
77287649,506
77297697,500
77307716,504
77317767,507
77327817,508
77337834,505
77347875,504
77357920,505
77367935,499
77377983,506
77388029,501
77398046,501
77408092,506
77418138,506
77428156,503
77438205,507
77448263,508
77458314,508
77468330,503
77478372,506
77488412,506
77498423,504
77508465,509
77518513,507
77528529,507
77538575,512
77548628,503
77558642,511
77568687,508
77578729,505
77588744,511
77598790,507
77608833,519
77618849,517
77628896,524
77638942,524
77648957,534
77659004,530
77669050,530
77679068,531
77689113,527
77699157,532
77709174,529
77719224,524
77729273,519
77739323,516
77749341,509
77759387,507
77769437,502
77779452,507
77789500,500
77799547,499
77809566,504
77819614,503
77829661,500
77839675,503
77849720,501
77859765,509
77869783,506
77879836,511
77889886,509
77899908,508
77909958,512
77920009,501
77930029,509
77940078,506
77950126,501
77960145,508
77970195,506
77980247,501
77990298,508
78000319,503
78010371,503
78020419,502
78030435,507
78040485,500
78050536,498
78060557,504
78070607,501
78080659,509
78090681,508
78100728,499
78110778,504
78120799,506
78130851,501
78140904,507
78150926,504
78160980,508
78171033,510
78181057,505
78191112,510
78201165,502
78211185,508
78221239,507
78231291,503
78241344,503
78251366,508
78261420,503
78271474,511
78281495,514
78291546,513
78301597,521
78311617,525
78321669,528
78331721,534
78341744,535
78351793,535
78361843,537
78371863,531
78381914,531
78391963,522
78401983,523
78412031,518
78422081,519
78432099,512
78442149,508
78452196,506
78462211,508
78472256,508
78482304,507
78492350,507
78502367,501
78512413,506
78522456,499
78532477,505
78542528,500
78552577,501
78562593,500
78572641,507
78582688,503
78592706,509
78602755,505
78612803,511
78622822,512
78632874,494
78642928,509
78652952,509
78663005,508
78673059,507
78683081,508
78693136,510
78703190,503
78713213,506
78723269,506
78733323,507
78743376,505
78753398,505
78763450,506
78773498,506
78783516,507
78793561,507
78803609,507
78813624,499
78823674,508
78833726,511
78843745,510
78853796,505
78863841,500
78873862,508
78883910,501
78893962,501
78903985,502
78914034,505
78924084,503
78934105,505
78944155,510
78954209,508
78964262,509
78974285,502
78984337,509
78994389,510
79004411,518
79014465,516
79024518,526
79034541,516
79044592,531
79054645,534
79064664,532
79074713,529
79084764,534
79094784,524
79104835,524
79114891,521
79124914,525
79134968,513
79145023,499
79155046,509
79165100,515
79175151,513
79185172,517
79195222,504
79205271,511
79215289,512
79225338,507
79235392,510
79245444,517
79255466,503
79265519,503
79275573,507
79285594,509
79295647,511
79305702,506
79315725,504
79325780,501
79335834,503
79345857,508
79355912,506
79365966,509
79375990,502
79386045,508
79396101,506
79406126,503
79416179,503
79426233,507
79436258,501
79446310,503
79456366,503
79466388,502
79476442,502
79486495,504
79496550,497
79506573,501
79516627,506
79526680,499
79536707,506
79546759,504
79556813,504
79566832,503
79576884,499
79586933,497
79596954,505
79607006,499
79617056,504
79627081,503
79637137,506
79647189,502
79657213,506
79667268,510
79677326,502
79687355,503
79697414,502
79707473,501
79717528,511
79727553,504
79737608,509
79747664,520
79757689,524
79767746,525
79777804,531
79787828,527
79797886,528
79807939,534
79817966,533
79828024,532
79838082,530
79848111,527
79858168,523
79868223,522
79878251,517
79888310,511
79898365,511
79908387,510
79918443,506
79928497,508
79938521,506
79948573,503
79958628,500
79968681,501
79978705,504
79988760,502
79998814,497
80008836,502
80018886,500
80028940,504
80038968,505
80049024,500
80059078,508
80069106,502
80079162,509
80089217,511
80099240,502
80109297,506
80119350,509
80129372,510
80139423,506
80149478,506
80159506,503
80169565,507
80179626,506
80189656,509
80199715,498
80209775,493
80219835,502
80229866,507
80239928,507
80249983,503
80260002,506
80270051,507
80280105,506
80290125,508
80300171,504
80310219,509
80320235,500
80330279,501
80340331,507
80350354,506
80360404,505
80370450,505
80380463,503
80390514,503
80400562,503
80410584,507
80420637,508
80430689,503
80440711,493
80450761,501
80460811,505
80470831,501
80480881,505
80490934,512
80500987,505
80511007,523
80521060,524
80531110,533
80541131,538
80551180,537
80561232,533
80571250,538
80581299,534
80591351,534
80601370,525
80611418,526
80621470,520
80631493,518
80641547,515
80651600,507
80661620,502
80671668,502
80681719,506
80691743,505
80701795,498
80711848,500
80721898,497
80731917,500
80741970,499
80752026,504
80762048,499
80772101,505
80782152,503
80792171,503
80802222,509
80812273,508
80822292,503
80832343,506
80842394,507
80852411,507
80862459,505
80872506,508
80882524,506
80892571,506
80902621,510
80912639,505
80922688,506
80932737,500
80942755,506
80952805,507
80962856,508
80972907,507
80982926,497
80992975,506
81003024,503
81013045,500
81023094,500
81033150,506
81043172,505
81053223,503
81063275,505
81073298,504
81083351,506
81093406,504
81103429,507
81113484,509
81123539,501
81133563,507
81143615,505
81153666,505
81163688,500
81173743,507
81183796,504
81193816,508
81203868,500
81213920,505
81223969,510
81233987,513
81244034,522
81254084,517
81264101,528
81274152,530
81284201,530
81294218,533
81304262,536
81314309,534
81324327,526
81334377,530
81344426,526
81354444,520
81364492,520
81374538,513
81384556,510
81394606,506
81404656,504
81414674,505
81424722,504
81434773,500
81444791,502
81454837,497
81464888,501
81474907,495
81484955,494
81495004,499
81505051,505
81515069,504
81525118,508
81535167,507
81545184,503
81555230,509
81565277,507
81575290,511
81585333,502
81595379,506
81605397,508
81615447,502
81625492,508
81635508,500
81645552,500
81655597,505
81665615,505
81675663,505
81685713,500
81695730,504
81705777,506
81715822,504
81725864,503
81735880,497
81745927,505
81755971,505
81765982,501
81776024,506
81786067,502
81796081,505
81806126,507
81816172,508
81826185,492
81836229,500
81846275,507
81856290,497
81866338,497
81876380,503
81886394,499
81896440,504
81906486,506
81916502,505
81926548,507
81936595,509
81946613,512
81956662,517
81966714,518
81976768,522
81986788,529
81996839,529
82006893,536
82016916,537
82026971,531
82037022,531
82047041,532
82057089,523
82067138,525
82077160,516
82087214,516
82097267,513
82107290,509
82117341,506
82127394,508
82137414,506
82147461,506
82157509,504
82167527,502
82177580,499
82187628,500
82197646,504
82207694,498
82217737,502
82227779,504
82237793,506
82247837,500
82257880,496
82267892,505
82277935,508
82287981,499
82297999,509
82308047,505
82318093,508
82328113,503
82338165,509
82348216,506
82358238,510
82368289,507
82378343,503
82388367,503
82398423,503
82408481,507
82418504,506
82428559,501
82438614,501
82448640,506
82458697,502
82468749,502
82478801,507
82488820,508
82498868,507
82508917,506
82518936,508
82528984,502
82539031,504
82549046,507
82559094,508
82569144,507
82579162,502
82589212,506
82599265,500
82609284,503
82619335,506
82629384,506
82639401,509
82649451,507
82659503,520
82669525,518
82679574,523
82689624,533
82699645,532
82709697,532
82719750,530
82729802,535
82739824,526
82749878,526
82759934,520
82769958,526
82780012,514
82790068,520
82800094,514
82810149,508
82820204,505
82830229,506
82840278,508
82850331,501
82860352,505
82870402,506
82880456,502
82890484,501
82900537,497
82910591,496
82920615,505
82930668,503
82940721,504
82950743,502
82960791,505
82970840,509
82980892,507
82990915,509
83000969,508
83011023,508
83021043,505
83031095,509
83041152,504
83051175,505
83061227,501
83071282,506
83081304,506
83091354,498
83101408,506
83111429,506
83121484,504
83131541,506
83141567,505
83151618,498
83161668,504
83171689,507
83181739,503
83191792,501
83201811,507
83211864,507
83221917,503
83231970,499
83241992,506
83252046,508
83262099,501
83272124,509
83282180,499
83292238,501
83302262,506
83312315,508
83322370,500
83332394,507
83342445,508
83352495,506
83362512,502
83372563,508
83382613,506
83392635,510
83402686,511
83412736,523
83422758,523
83432811,532
83442862,538
83452881,536
83462932,538
83472984,534
83483007,534
83493060,530
83503112,533
83513163,524
83523185,523
83533238,505
83543292,508
83553315,502
83563366,507
83573419,507
83583443,501
83593493,506
83603545,501
83613566,502
83623618,507
83633670,500
83643693,500
83653744,504
83663794,507
83673812,509
83683862,507
83693914,508
83703933,502
83713984,508
83724034,510
83734054,508
83744110,508
83754168,508
83764227,506
83774257,506
83784314,504
83794373,504
83804398,501
83814449,502
83824500,503
83834519,507
83844566,504
83854614,502
83864631,500
83874680,506
83884728,500
83894746,498
83904799,501
83914850,505
83924867,506
83934913,508
83944958,505
83954975,505
83965025,499
83975072,504
83985119,505
83995141,506
84005193,498
84015244,506
84025263,504
84035311,507
84045358,505
84055376,508
84065427,502
84075476,504
84085496,505
84095548,506
84105598,505
84115619,499
84125670,503
84135722,506
84145744,497
84155797,506
84165850,506
84175869,511
84185919,508
84195970,510
84205990,518
84216041,522
84226093,534
84236143,536
84246162,538
84256210,536
84266260,529
84276279,534
84286328,534
84296378,530
84306396,521
84316442,524
84326489,511
84336505,515
84346553,511
84356600,507
84366618,504
84376668,506
84386717,507
84396736,499
84406785,505
84416836,504
84426856,499
84436908,497
84446960,501
84456985,508
84467039,506
84477095,511
84487123,509
84497178,505
84507229,512
84517279,508
84527294,510
84537346,509
84547397,509
84557418,511
84567466,509
84577513,504
84587529,506
84597580,505
84607631,502
84617653,505
84627703,505
84637754,505
84647778,504
84657828,502
84667882,506
84677905,503
84687958,500
84698009,508
84708033,508
84718088,503
84728140,504
84738159,503
84748209,507
84758259,508
84768312,506
84778332,502
84788383,506
84798435,506
84808455,500
84818506,507
84828557,509
84838576,502
84848626,499
84858673,503
84868691,505
84878741,507
84888792,505
84898813,506
84908863,507
84918916,502
84928938,504
84938989,506
84949042,507
84959063,502
84969115,510
84979170,512
84989192,518
84999247,514
85009300,522
85019353,527
85029373,534
85039425,533
85049480,542
85059503,536
85069555,535
85079603,533
85089623,528
85099673,521
85109723,518
85119743,515
85129792,511
85139845,505
85149865,508
85159914,505
85169965,497
85179986,503
85190038,497
85200091,503
85210114,502
85220164,504
85230213,503
85240263,505
85250283,499
85260333,507
85270384,508
85280405,503
85290455,511
85300507,510
85310527,510
85320578,507
85330632,507
85340655,510
85350707,504
85360759,506
85370780,508
85380831,505
85390882,504
85400906,499
85410959,506
85421011,505
85431030,503
85441083,505
85451136,507
85461157,503
85471210,504
85481263,505
85491317,509
85501340,506
85511395,506
85521449,504
85531470,505
85541527,506
85551581,505
85561608,507
85571666,504
85581722,506
85591747,501
85601802,499
85611855,507
85621881,508
85631939,501
85641993,506
85652019,506
85662075,508
85672131,507
85682155,502
85692210,509
85702266,509
85712291,510
85722347,508
85732404,510
85742431,511
85752490,505
85762546,510
85772603,513
85782630,518
85792687,517
85802743,521
85812770,530
85822828,532
85832884,529
85842908,538
85852963,533
85863019,536
85873044,531
85883100,528
85893156,518
85903185,515
85913241,515
85923299,512
85933323,509
85943380,504
85953435,503
85963462,503
85973520,499
85983576,502
85993600,501
86003653,496
86013706,503
86023756,502
86033779,504
86043830,504
86053882,507
86063903,507
86073955,503
86084010,510
86094034,504
86104089,513
86114142,512
86124164,509
86134217,508
86144272,503
86154293,507
86164343,505
86174396,508
86184420,505
86194477,503
86204533,499
86214557,501
86224612,504
86234665,499
86244687,506
86254739,501
86264795,504
86274850,499
86284876,505
86294931,503
86304983,503
86315004,505
86325060,506
86335113,507
86345131,504
86355180,508
86365233,510
86375260,509
86385315,511
86395370,509
86405394,501
86415449,502
86425503,506
86435529,505
86445586,501
86455637,509
86465660,510
86475714,506
86485768,501
86495824,507
86505850,500
86515905,502
86525962,509
86535986,509
86546041,509
86556097,510
86566118,514
86576171,519
86586223,527
86596243,527
86606296,527
86616347,533
86626368,532
86636420,538
86646472,529
86656493,529
86666547,526
86676598,523
86686623,512
86696672,512
86706722,507
86716743,506
86726797,501
86736851,503
86746871,503
86756925,498
86766981,498
86777035,498
86787058,499
86797112,502
86807166,499
86817189,498
86827244,502
86837301,500
86847326,500
86857380,510
86867433,499
86877456,508
86887511,513
86897566,515
86907591,508
86917646,514
86927701,507
86937727,513
86947780,508
86957838,509
86967862,509
86977915,506
86987966,509
86997985,501
87008039,502
87018091,502
87028142,498
87038165,503
87048217,507
87058272,506
87068297,504
87078352,501
87088408,508
87098430,502
87108484,508
87118539,505
87128563,502
87138619,505
87148677,501
87158704,501
87168757,507
87178811,510
87188837,503
87198895,507
87208950,506
87218975,504
87229030,509
87239087,503
87249114,504
87259169,508
87269225,508
87279280,506
87289301,507
87299356,507
87309408,506
87319431,515
87329482,518
87339536,522
87349555,527
87359606,522
87369658,529
87379681,535
87389732,535
87399787,531
87409812,529
87419864,525
87429919,526
87439939,512
87449991,515
87460045,511
87470068,505
87480125,506
87490181,505
87500239,501
87510264,504
87520318,500
87530368,505
87540391,506
87550446,505
87560503,506
87570530,501
87580587,505
87590643,506
87600667,507
87610724,505
87620782,505
87630808,507
87640861,505
87650915,508
87660937,507
87670992,508
87681044,508
87691066,505
87701117,509
87711159,508
87721173,503
87731219,506
87741266,499
87751311,507
87761325,504
87771373,507
87781421,498
87791438,508
87801488,503
87811539,508
87821559,509
87831610,500
87841660,508
87851681,504
87861732,507
87871783,507
87881803,505
87891855,508
87901907,507
87911931,508
87921983,512
87932032,504
87942052,509
87952105,505
87962158,511
87972180,507
87982231,510
87992283,509
88002302,511
88012354,512
88022406,514
88032457,519
88042478,526
88052531,522
88062581,529
88072603,537
88082655,534
88092709,539
88102731,527
88112788,529
88122841,531
88132860,523
88142907,516
88152955,518
88162972,516
88173015,515
88183064,503
88193082,505
88203129,500
88213177,497
88223195,503
88233242,501
88243292,504
88253348,502
88263366,498
88273416,500
88283464,501
88293484,509
88303533,504
88313583,509
88323603,510
88333652,512
88343706,512
88353728,507
88363781,508
88373835,507
88383859,498
88393911,507
88403964,505
88413987,508
88424041,506
88434092,505
88444114,502
88454169,503
88464223,497
88474244,504
88484292,506
88494343,501
88504367,504
88514420,488
88524474,508
88534527,505
88544549,508
88554604,505
88564659,505
88574685,509
88584740,506
88594794,507
88604818,508
88614873,506
88624931,503
88634958,504
88645015,509
88655069,505
88665093,500
88675147,503
88685205,506
88695230,501
88705283,507
88715338,514
88725362,511
88735415,523
88745468,526
88755526,532
88765551,527
88775607,533
88785665,535
88795689,532
88805741,531
88815796,523
88825821,528
88835877,522
88845934,522
88855959,515
88866015,514
88876068,507
88886091,509
88896145,506
88906198,502
88916220,495
88926272,501
88936324,501
88946347,503
88956401,503
88966454,501
88976476,499
88986528,497
88996578,506
89006597,505
89016647,503
89026697,506
89036750,510
89046770,510
89056819,510
89066868,509
89076885,507
89086934,509
89096982,506
89107004,504
89117064,499
89127123,498
89137151,502
89147210,498
89157267,504
89167296,505
89177353,505
89187413,506
89197446,505
89207508,502
89217567,504
89227593,504
89237650,504
89247708,504
89257765,506
89267795,507
89277854,503
89287913,507
89297941,498
89307997,505
89318047,498
89328069,502
89338121,500
89348175,505
89358193,505
89368245,507
89378297,505
89388319,508
89398370,510
89408414,513
89418432,518
89428481,514
89438531,524
89448551,533
89458601,533
89468651,532
89478671,533
89488723,532
89498774,535
89508830,526
89518853,527
89528907,526
89538961,522
89548985,514
89559038,514
89569089,508
89579108,501
89589162,502
89599212,499
89609234,505
89619287,504
89629339,503
89639361,501
89649410,495
89659462,496
89669483,496
89679536,503
89689587,505
89699606,505
89709654,509
89719703,505
89729718,510
89739768,505
89749816,510
89759835,511
89769886,505
89779939,506
89789987,505
89800003,506
89810051,500
89820101,490
89830118,501
89840165,503
89850212,497
89860231,505
89870282,508
89880331,503
89890351,507
89900403,502
89910453,505
89920473,507
89930524,507
89940576,506
89950598,501
89960651,506
89970702,504
89980722,504
89990775,508
90000828,494
90010882,502
90020903,503
90030954,504
90041005,503
90051024,510
90061076,505
90071131,508
90081155,510
90091209,502
90101261,508
90111281,508
90121329,507
90131379,514
90141400,520
90151453,517
90161503,527
90171523,534
90181576,532
90191628,530
90201652,537
90211704,530
90221755,530
90231772,526
90241822,522
90251869,518
90261914,514
90271930,510
90281976,514
90292023,510
90302041,506
90312087,501
90322132,501
90332147,503
90342197,504
90352243,497
90362256,502
90372302,503
90382352,499
90392368,504
90402413,506
90412461,508
90422477,506
90432522,501
90442573,502
90452597,502
90462653,510
90472707,510
90482729,505
90492784,508
90502833,506
90512883,507
90522905,508
90532953,504
90543000,501
90553016,501
90563065,503
90573116,504
90583134,502
90593183,507
90603228,505
90613252,507
90623303,505
90633355,501
90643375,504
90653426,506
90663476,506
90673495,502
90683543,508
90693592,505
90703611,501
90713662,508
90723711,501
90733732,506
90743782,500
90753833,510
90763887,505
90773908,510
90783960,502
90794010,506
90804029,506
90814078,510
90824127,508
90834143,500
90844191,505
90854238,509
90864256,508
90874307,507
90884355,510
90894378,513
90904431,523
90914479,526
90924498,527
90934549,536
90944602,530
90954626,536
90964678,518
90974729,525
90984749,526
90994803,525
91004854,520
91014904,506
91024927,503
91034982,505
91045034,507
91055058,507
91065113,497
91075167,505
91085188,501
91095240,507
91105292,507
91115314,504
91125366,505
91135416,504
91145437,506
91155488,505
91165544,505
91175566,508
91185617,504
91195670,506
91205691,512
91215743,503
91225797,506
91235819,509
91245873,509
91255926,506
91265980,505
91276001,502
91286052,502
91296103,500
91306128,504
91316183,504
91326237,505
91336262,506
91346321,506
91356380,506
91366403,505
91376458,501
91386510,507
91396529,506
91406577,502
91416630,490
91426653,507
91436708,506
91446761,503
91456784,505
91466836,507
91476888,509
91486911,505
91496962,504
91507015,507
91517067,507
91527091,508
91537144,502
91547197,509
91557221,507
91567274,500
91577330,509
91587354,509
91597408,514
91607463,517
91617488,524
91627541,525
91637592,527
91647617,528
91657672,527
91667726,527
91677751,528
91687803,532
91697858,528
91707883,521
91717937,522
91727988,519
91738009,513
91748062,511
91758118,506
91768172,504
91778196,500
91788251,495
91798303,500
91808325,503
91818379,503
91828432,504
91838454,506
91848505,502
91858559,508
91868582,502
91878637,504
91888692,510
91898716,510
91908773,508
91918829,511
91928852,509
91938904,508
91948957,511
91958978,503
91969029,511
91979083,506
91989106,503
91999158,507
92009215,506
92019238,505
92029287,503
92039341,505
92049394,505
92059416,505
92069467,505
92079518,502
92089539,502
92099591,505
92109642,505
92119661,508
92129711,506
92139762,507
92149783,506
92159835,509
92169885,508
92179902,507
92189956,509
92200010,503
92210031,508
92220084,503
92230137,508
92240161,507
92250213,505
92260269,505
92270323,508
92280346,510
92290400,508
92300455,507
92310477,508
92320529,513
92330582,520
92340607,524
92350659,525
92360712,530
92370733,525
92380782,538
92390832,539
92400850,534
92410898,536
92420947,528
92430964,528
92441014,523
92451067,519
92461089,509
92471141,509
92481191,508
92491212,504
92501263,505
92511314,505
92521368,499
92531390,497
92541444,500
92551499,499
92561522,499
92571580,500
92581635,507
92591660,496
92601714,503
92611770,507
92621798,501
92631856,511
92641914,513
92651939,510
92661993,514
92672045,509
92682067,515
92692121,501
92702178,510
92712200,510
92722254,508
92732310,501
92742334,510
92752390,509
92762447,509
92772473,506
92782531,506
92792593,506
92802656,502
92812685,509
92822741,506
92832797,508
92842824,504
92852885,497
92862938,506
92872958,508
92883009,506
92893063,502
92903084,504
92913138,507
92923190,501
92933216,508
92943274,505
92953331,509
92963356,502
92973411,509
92983465,505
92993487,504
93003542,499
93013597,499
93023650,499
93033672,498
93043729,499
93053782,504
93063802,507
93073856,513
93083911,514
93093935,514
93103986,528
93114038,531
93124062,535
93134113,529
93144164,531
93154187,530
93164235,529
93174282,528
93184305,529
93194361,525
93204420,519
93214444,514
93224500,515
93234561,510
93244590,503
93254650,510
93264706,509
93274765,497
93284789,500
93294845,499
93304902,507
93314929,507
93324985,499
93335041,495
93345069,499
93355126,508
93365184,509
93375212,512
93385271,510
93395328,515
93405355,507
93415411,511
93425469,509
93435496,510
93445549,510
93455602,505
93465627,506
93475683,504
93485737,504
93495760,492
93505815,503
93515865,500
93525884,499
93535935,497
93545987,500
93556042,506
93566066,507
93576120,501
93586175,504
93596197,508
93606249,507
93616303,500
93626323,501
93636374,506
93646423,507
93656444,506
93666498,503
93676553,499
93686579,510
93696634,505
93706688,506
93716711,504
93726765,496
93736819,506
93746841,500
93756895,500
93766949,499
93776974,506
93787029,511
93797082,508
93807136,505
93817160,507
93827211,509
93837263,511
93847285,511
93857338,517
93867394,521
93877413,522
93887467,525
93897525,522
93907552,532
93917607,537
93927665,534
93937691,532
93947744,530
93957800,509
93967825,521
93977882,519
93987937,515
93997961,506
94008017,509
94018072,501
94028124,509
94038148,506
94048200,498
94058250,499
94068273,502
94078325,505
94088377,501
94098400,501
94108457,506
94118512,505
94128534,503
94138588,508
94148639,508
94158658,505
94168711,513
94178764,511
94188786,508
94198841,511
94208896,510
94218920,511
94228975,503
94239032,511
94249053,503
94259105,509
94269155,500
94279208,501
94289233,505
94299284,507
94309340,504
94319363,499
94329415,505
94339467,509
94349489,506
94359544,505
94369599,503
94379622,508
94389678,511
94399733,503
94409758,508
94419816,508
94429873,509
94439900,507
94449953,504
94460009,508
94470033,507
94480091,504
94490151,503
94500179,504
94510243,503
94520304,503
94530335,501
94540398,499
94550461,500
94560520,504
94570548,504
94580602,513
94590652,511
94600672,524
94610727,523
94620780,529
94630801,532
94640852,532
94650904,532
94660927,531
94670980,525
94681036,525
94691060,526
94701116,514
94711171,514
94721195,506
94731250,507
94741305,506
94751329,505
94761382,508
94771434,504
94781487,502
94791511,503
94801565,496
94811616,505
94821637,504
94831692,499
94841746,505
94851767,505
94861818,508
94871869,508
94881890,510
94891941,513
94901990,511
94912011,508
94922061,506
94932113,506
94942134,504
94952186,506
94962237,501
94972256,504
94982306,505
94992358,506
95002385,504
95012442,506
95022498,504
95032523,505
95042581,505
95052637,500
95062691,502
95072717,508
95082774,504
95092830,509
95102854,506
95112912,499
95122966,506
95132985,509
95143040,508
95153093,510
95163113,502
95173163,504
95183216,508
95193236,503
95203288,504
95213341,502
95223366,502
95233419,503
95243472,502
95253494,503
95263548,500
95273602,503
95283650,512
95293673,504
95303726,514
95313778,519
95323799,522
95333851,525
95343902,529
95353924,532
95363977,534
95374030,532
95384050,530
95394099,523
95404150,519
95414168,514
95424218,518
95434267,505
95444284,504
95454332,509
95464379,501
95474399,501
95484450,504
95494498,500
95504518,506
95514567,503
95524619,503
95534668,506
95544688,505
95554740,507
95564791,505
95574812,501
95584864,503
95594914,507
95604937,509
95614986,507
95625032,510
95635047,508
95645095,510
95655148,512
95665170,507
95675224,506
95685278,510
95695304,503
95705358,507
95715409,506
95725429,508
95735482,505
95745533,505
95755556,509
95765608,506
95775659,502
95785682,502
95795734,506
95805786,500
95815838,504
95825860,506
95835914,498
95845965,497
95855986,503
95866041,501
95876095,506
95886119,505
95896172,506
95906226,503
95916250,499
95926302,499
95936354,500
95946374,504
95956426,506
95966477,498
95976496,504
95986543,507
95996591,508
96006608,508
96016652,511
96026699,514
96036716,522
96046766,527
96056815,532
96066866,531
96076886,530
96086936,534
96096984,529
96106998,532
96117047,524
96127096,524
96137114,520
96147163,509
96157214,508
96167234,509
96177285,506
96187334,497
96197352,498
96207401,502
96217449,501
96227466,498
96237516,496
96247566,496
96257585,497
96267639,498
96277695,500
96287721,504
96297774,499
96307820,492
96317866,506
96327884,507
96337936,504
96347988,510
96358007,498
96368060,504
96378113,501
96388135,508
96398185,502
96408237,503
96418254,501
96428302,501
96438348,507
96448366,503
96458416,505
96468465,507
96478483,507
96488533,507
96498583,504
96508603,501
96518649,505
96528701,505
96538729,505
96548788,505
96558844,505
96568895,505
96578914,500
96588966,508
96599017,505
96609035,506
96619085,500
96629138,502
96639158,499
96649209,506
96659258,508
96669277,505
96679328,504
96689378,503
96699396,509
96709446,508
96719495,505
96729515,500
96739565,506
96749617,507
96759635,509
96769683,513
96779732,517
96789749,523
96799797,529
96809846,524
96819894,537
96829910,536
96839954,534
96849998,536
96860014,535
96870060,524
96880104,526
96890118,515
96900163,513
96910212,518
96920228,512
96930275,510
96940323,509
96950343,499
96960394,504
96970438,499
96980455,503
96990502,502
97000550,503
97010567,507
97020615,504
97030660,506
97040707,509
97050721,501
97060765,510
97070813,510
97080834,514
97090883,510
97100933,506
97110952,512
97121000,504
97131050,509
97141068,506
97151116,506
97161164,508
97171183,508
97181231,508
97191280,506
97201298,504
97211346,502
97221393,505
97231410,505
97241456,506
97251504,510
97261523,505
97271569,509
97281617,509
97291664,511
97301684,506
97311732,509
97321780,512
97331798,505
97341849,513
97351900,505
97361922,506
97371975,507
97382025,508
97392043,511
97402089,511
97412135,510
97422153,508
97432200,501
97442245,507
97452260,501
97462308,508
97472353,506
97482368,507
97492414,506
97502463,505
97512483,514
97522535,517
97532585,519
97542632,523
97552649,529
97562698,533
97572747,532
97582764,538
97592814,535
97602864,535
97612885,534
97622933,526
97632987,526
97643007,518
97653061,521
97663113,514
97673135,514
97683189,508
97693241,507
97703260,506
97713310,497
97723359,495
97733377,504
97743427,500
97753477,503
97763496,499
97773543,507
97783592,505
97793638,506
97803654,510
97813697,509
97823742,511
97833758,509
97843802,509
97853850,512
97863867,503
97873917,504
97883966,507
97893987,508
97904040,507
97914093,506
97924114,503
97934165,507
97944215,505
97954232,501
97964281,505
97974326,507
97984343,507
97994394,503
98004445,506
98014466,506
98024520,504
98034568,508
98044619,504
98054639,510
98064691,507
98074743,501
98084764,504
98094810,503
98104858,504
98114876,510
98124926,510
98134975,503
98144996,511
98155052,512
98165107,510
98175129,510
98185183,512
98195236,508
98205260,505
98215316,508
98225369,510
98235392,503
98245446,508
98255498,513
98265521,516
98275574,516
98285624,526
98295675,533
98305697,533
98315751,531
98325803,539
98335825,536
98345874,536
98355929,530
98365950,528
98375999,521
98386053,521
98396078,515
98406129,514
98416178,506
98426204,499
98436261,498
98446317,499
98456343,504
98466402,502
98476463,504
98486489,499
98496546,506
98506601,504
98516624,504
98526680,507
98536737,507
98546763,508
98556819,507
98566871,512
98576925,505
98586947,503
98596997,505
98607047,506
98617067,506
98627117,504
98637167,501
98647188,506
98657240,508
98667292,507
98677317,506
98687377,504
98697435,504
98707460,502
98717516,507
98727575,508
98737601,502
98747661,501
98757714,499
98767732,503
98777779,503
98787827,506
98797876,507
98807892,502
98817939,508
98827984,504
98838002,506
98848053,508
98858106,509
98868127,501
98878178,508
98888229,509
98898244,508
98908290,505
98918340,501
98928359,506
98938407,500
98948450,504
98958463,508
98968511,507
98978560,506
98988578,507
98998626,510
99008674,512
99018690,522
99028738,526
99038783,525
99048800,534
99058849,537
99068900,534
99078950,537
99088969,525
99099012,530
99109060,520
99119079,521
99129126,517
99139175,510
99149191,506
99159241,501
99169291,502
99179311,497
99189361,500
99199411,504
99209428,494
99219479,500
99229532,500
99239552,500
99249601,505
99259652,508
99269674,504
99279730,509
99289782,504
99299835,510
99309856,509
99319907,510
99329961,510
99339984,508
99350036,508
99360087,508
99370109,508
99380161,504
99390213,500
99400234,508
99410286,504
99420337,499
99430357,500
99440409,503
99450461,505
99460477,506
99470526,503
99480574,504
99490592,507
99500642,498
99510692,503
99520708,499
99530754,506
99540802,503
99550851,508
99560868,504
99570915,510
99580961,502
99590980,509
99601029,507
99611079,509
99621100,505
99631155,504
99641210,509
99651236,503
99661294,506
99671352,505
99681378,500
99691433,505
99701489,502
99711514,498
99721570,510
99731626,513
99741654,515
99751707,518
99761760,522
99771783,524
99781840,524
99791899,534
99801955,531
99811980,533
99822036,532
99832094,528
99842120,523
99852178,514
99862235,517
99872259,514
99882315,508
99892370,505
99902394,497
99912448,504
99922496,499
99932519,496
99942571,501
99952622,501
99962643,503
99972694,502
99982746,506
99992771,507
100002823,506
100012876,505
100022896,507
100032945,508
100042999,512
100053050,506
100063076,506
100073132,494
100083188,508
100093211,507
100103266,499
100113321,508
100123344,505
100133394,506
100143445,499
100153464,500
100163516,504
100173569,509
100183586,509
100193638,506
100203687,502
100213707,508
100223757,503
100233806,507
100243826,509
100253874,504
100263924,507
100273944,505
100283997,509
100294049,510
100304103,504
100314125,505
100324175,504
100334223,505
100344245,510
100354298,508
100364352,506
100374376,507
100384427,501
100394480,506
100404500,503
100414551,505
100424599,506
100434618,511
100444666,508
100454715,513
100464735,519
100474783,520
100484832,523
100494851,528
100504896,527
100514942,530
100524962,534
100535010,530
100545060,531
100555113,519
100565133,522
100575179,521
100585228,513
100595249,507
100605299,509
100615348,497
100625367,501
100635414,503
100645463,504
100655480,500
100665529,503
100675577,495
100685592,501
100695639,505
100705684,507
100715703,508
100725752,505
100735803,510
100745826,508
100755878,511
100765929,512
100775950,509
100786001,512
100796050,511
100806100,506
100816114,504
100826160,506
100836208,501
100846226,502
100856275,498
100866325,506
100876342,504
100886391,503
100896440,504
100906461,502
100916507,504
100926553,505
100936570,503
100946620,508
100956671,502
100966691,504
100976744,505
100986795,510
100996816,508
101006865,511
101016919,511
101026943,509
101036996,506
101047058,503
101057085,501
101067142,506
101077199,507
101087248,506
101097270,502
101107317,505
101117367,506
101127385,498
101137433,503
101147481,511
101157502,510
101167554,514
101177606,522
101187625,524
101197671,526
101207716,534
101217730,529
101227773,535
101237821,532
101247840,524
101257890,527
101267937,519
101277955,513
101288005,511
101298053,508
101308100,509
101318117,505
101328167,498
101338219,502
101348236,502
101358290,504
101368345,500
101378363,496
101388413,504
101398465,502
101408488,506
101418541,509
101428588,506
101438605,517
101448652,507
101458699,512
101468720,506
101478770,508
101488822,512
101498841,511
101508886,509
101518933,505
101528952,507
101539001,508
101549045,500
101559094,508
101569115,498
101579161,503
101589210,508
101599230,500
101609282,508
101619335,503
101629353,504
101639401,503
101649452,506
101659475,505
101669527,509
101679582,501
101689605,511
101699660,509
101709716,503
101719739,508
101729792,502
101739847,506
101749873,504
101759928,509
101769984,508
101780009,509
101790062,506
101800114,504
101810167,501
101820190,504
101830240,505
101840289,506
101850309,509
101860362,504
101870414,514
101880436,522
101890488,517
101900539,529
101910559,523
101920613,534
101930662,527
101940682,524
101950734,529
101960786,527
101970808,523
101980859,518
101990907,513
102000925,512
102010975,506
102021027,505
102031045,499
102041095,503
102051146,500
102061199,503
102071220,499
102081272,502
102091323,500
102101345,501
102111400,503
102121455,503
102131475,510
102141526,507
102151576,508
102161595,511
102171646,511
102181694,509
102191713,505
102201763,513
102211812,511
102221831,510
102231882,509
102241929,500
102251950,507
102262002,503
102272053,504
102282072,503
102292119,504
102302168,501
102312192,506
102322246,504
102332296,505
102342343,503
102352358,501
102362404,504
102372454,505
102382473,506
102392525,509
102402576,507
102412597,510
102422647,509
102432698,509
102442718,508
102452768,504
102462820,509
102472838,501
102482888,510
102492938,510
102502958,507
102513009,505
102523060,509
102533078,508
102543129,507
102553177,508
102563228,513
102573247,522
102583295,523
102593342,524
102603361,533
102613406,532
102623453,537
102633472,528
102643522,532
102653572,530
102663588,526
102673635,523
102683683,519
102693701,518
102703753,512
102713801,511
102723818,506
102733867,507
102743917,499
102753940,496
102763993,504
102774044,504
102784062,507
102794114,506
102804165,503
102814210,502
102824227,510
102834276,501
102844327,509
102854347,510
102864391,508
102874440,511
102884459,506
102894508,505
102904555,511
102914576,508
102924626,511
102934676,508
102944696,504
102954745,505
102964791,502
102974804,505
102984852,506
102994900,507
103004918,504
103014966,505
103025014,503
103035032,504
103045079,508
103055125,506
103065174,504
103075190,507
103085237,507
103095283,506
103105298,499
103115345,502
103125393,505
103135411,508
103145456,504
103155503,507
103165518,503
103175565,506
103185612,510
103195632,511
103205683,509
103215732,510
103225751,519
103235802,520
103245854,520
103255875,527
103265925,530
103275977,538
103285996,532
103296048,530
103306097,529
103316147,526
103326165,525
103336215,525
103346265,518
103356284,514
103366334,516
103376388,511
103386413,504
103396464,509
103406513,503
103416527,508
103426574,504
103436622,504
103446640,499
