timestamp, ppg
12393176,507
12402984,504
12412989,504
12423026,501
12433063,503
12443070,504
12453109,498
12463149,502
12473158,497
12483199,499
12493243,503
12503255,502
12513295,504
12523338,506
12533354,506
12543398,503
12553439,505
12563451,501
12573495,504
12583539,505
12593583,500
12603597,501
12613637,502
12623683,506
12633697,504
12643740,502
12653784,503
12663799,504
12673842,498
12683887,501
12693898,504
12703936,503
12713975,498
12723985,499
12734027,496
12744066,498
12754075,498
12764115,497
12774154,503
12784163,503
12794201,500
12804237,507
12814240,498
12824279,500
12834319,498
12844356,505
12854365,502
12864406,504
12874447,501
12884461,498
12894504,501
12904549,500
12914565,505
12924608,503
12934649,501
12944659,501
12954702,503
12964745,503
12974757,506
12984800,517
12994844,514
13004858,519
13014900,523
13024943,525
13034955,522
13044998,525
13055042,527
13065056,520
13075100,519
13085143,518
13095185,516
13105195,508
13115236,509
13125277,501
13135289,501
13145332,503
13155373,502
13165386,504
13175424,500
13185466,495
13195477,499
13205520,499
13215565,496
13225581,492
13235624,495
13245667,495
13255679,498
13265722,497
13275767,501
13285778,502
13295819,493
13305862,497
13315876,499
13325920,503
13335965,498
13346009,499
13356020,499
13366064,502
13376108,498
13386120,492
13396165,495
13406209,500
13416221,495
13426264,502
13436307,498
13446322,499
13456366,493
13466412,499
13476424,500
13486465,499
13496509,491
13506519,500
13516562,500
13526602,501
13536612,498
13546655,499
13556696,500
13566705,494
13576745,502
13586785,497
13596823,498
13606835,501
13616876,502
13626922,498
13636937,498
13646981,500
13657025,496
13667041,503
13677084,500
13687128,502
13697143,498
13707188,497
13717233,502
13727243,499
13737285,502
13747326,500
13757338,499
13767379,504
13777423,504
13787432,498
13797475,505
13807516,508
13817522,507
13827559,506
13837599,504
13847637,504
13857646,510
13867688,508
13877732,510
13887745,509
13897786,512
13907824,521
13917834,522
13927875,523
13937916,528
13947926,531
13957964,534
13968005,534
13978016,534
13988057,531
13998100,521
14008111,524
14018152,516
14028188,517
14038195,515
14048236,509
14058276,512
14068289,503
14078333,502
14088374,505
14098415,504
14108423,504
14118463,504
14128500,502
14138506,502
14148549,503
14158588,497
14168593,506
14178630,503
14188671,506
14198680,508
14208718,507
14218759,504
14228768,508
14238807,505
14248850,502
14258858,506
14268897,502
14278933,499
14288941,505
14298980,503
14309020,497
14319030,499
14329071,503
14339112,502
14349150,500
14359156,502
14369196,504
14379236,506
14389248,501
14399291,494
14409334,504
14419346,498
14429385,498
14439427,500
14449435,500
14459477,495
14469518,502
14479529,501
14489568,502
14499608,496
14509616,506
14519656,500
14529696,501
14539711,499
14549755,501
14559796,501
14569810,504
14579857,501
14589899,498
14599940,502
14609950,503
14619993,499
14630035,504
14640045,503
14650084,505
14660125,510
14670134,512
14680177,512
14690219,512
14700231,513
14710275,515
14720318,525
14730330,526
14740369,525
14750408,524
14760412,526
14770445,525
14780481,524
14790484,515
14800520,519
14810555,517
14820562,515
14830600,511
14840641,506
14850685,502
14860695,504
14870734,499
14880771,502
14890778,503
14900817,500
14910855,497
14920867,502
14930905,501
14940944,501
14950955,503
14960999,501
14971041,503
14981052,496
14991091,497
15001132,501
15011144,499
15021186,505
15031223,498
15041231,501
15051273,502
15061313,501
15071323,504
15081366,506
15091404,503
15101447,502
15111456,505
15121495,501
15131532,504
15141541,496
15151581,498
15161622,502
15171633,495
15181676,498
15191718,501
15201727,504
15211765,504
15221802,498
15231809,506
15241854,500
15251898,498
15261908,506
15271948,499
15281990,500
15292000,498
15302039,497
15312078,507
15322084,501
15332125,503
15342163,503
15352200,500
15362209,501
15372247,499
15382285,497
15392292,496
15402329,499
15412362,495
15422367,495
15432404,497
15442446,493
15452455,501
15462491,500
15472530,507
15482538,510
15492575,515
15502614,515
15512620,521
15522659,524
15532698,528
15542705,526
15552742,533
15562775,532
15572780,530
15582817,529
15592856,521
15602894,524
15612901,523
15622940,518
15632978,516
15642979,514
15653014,507
15663051,503
15673057,508
15683093,504
15693126,501
15703131,495
15713169,499
15723207,497
15733212,498
15743247,498
15753283,501
15763290,500
15773328,500
15783365,504
15793371,503
15803408,502
15813443,502
15823447,508
15833483,505
15843517,501
15853551,509
15863555,502
15873591,507
15883628,501
15893640,504
15903686,502
15913728,501
15923736,497
15933778,495
15943819,500
15953826,499
15963864,499
15973903,495
15983913,497
15993951,496
16003989,491
16013996,497
16024033,496
16034066,497
16044072,487
16054106,494
16064147,496
16074158,494
16084198,494
16094239,497
16104278,496
16114282,506
16124320,500
16134359,499
16144368,499
16154408,502
16164445,502
16174453,502
16184490,500
16194527,503
16204531,500
16214566,499
16224604,503
16234611,498
16244649,499
16254685,496
16264692,498
16274729,499
16284764,505
16294771,508
16304810,507
16314847,510
16324854,512
16334890,517
16344926,517
16354963,518
16364970,521
16375007,515
16385044,520
16395049,520
16405086,513
16415123,512
16425129,516
16435165,510
16445202,510
16455211,503
16465249,503
16475290,508
16485294,505
16495328,500
16505363,502
16515368,495
16525406,501
16535447,500
16545458,494
16555498,499
16565537,497
16575546,501
16585579,497
16595618,505
16605657,504
16615666,502
16625705,503
16635740,507
16645744,503
16655784,508
16665825,508
16675835,506
16685876,500
16695915,500
16705925,501
16715965,507
16726005,506
16736014,502
16746055,505
16756100,505
16766111,499
16776146,499
16786180,494
16796186,498
16806223,497
16816262,497
16826269,498
16836308,496
16846344,500
16856383,499
16866390,497
16876425,496
16886462,503
16896469,501
16906509,498
16916547,501
16926555,504
16936596,499
16946633,505
16956645,500
16966688,507
16976729,503
16986738,501
16996774,506
17006812,500
17016820,504
17026860,504
17036901,505
17046914,497
17056956,499
17067000,504
17077014,503
17087058,504
17097100,508
17107140,509
17117147,511
17127186,512
17137224,517
17147230,515
17157263,520
17167303,521
17177310,522
17187347,525
17197388,526
17207396,521
17217436,524
17227474,519
17237482,521
17247522,519
17257560,512
17267566,514
17277602,506
17287638,514
17297644,509
17307680,508
17317717,500
17327727,504
17337765,500
17347800,500
17357838,504
17367843,496
17377879,503
17387914,503
17397919,495
17407955,502
17417990,505
17427999,502
17438040,504
17448083,499
17458094,504
17468135,506
17478176,506
17488185,500
17498224,498
17508267,503
17518278,498
17528321,501
17538367,503
17548380,505
17558423,505
17568466,503
17578478,504
17588519,493
17598561,504
17608602,499
17618611,505
17628648,496
17638687,503
17648699,504
17658742,497
17668782,506
17678792,501
17688831,503
17698871,504
17708878,504
17718915,504
17728952,506
17738961,502
17749001,504
17759042,504
17769053,504
17779092,500
17789132,498
17799141,504
17809182,500
17819226,503
17829240,505
17839283,506
17849323,494
17859365,505
17869376,498
17879419,500
17889459,507
17899470,504
17909516,508
17919563,506
17929577,506
17939623,513
17949671,515
17959686,520
17969729,527
17979767,526
17989775,528
17999816,528
18009856,526
18019867,521
18029909,521
18039951,523
18049961,521
18060003,518
18070043,517
18080050,514
18090090,508
18100132,511
18110169,510
18120175,512
18130214,508
18140252,507
18150259,504
18160298,504
18170332,500
18180338,501
18190374,499
18200408,495
18210413,500
18220449,495
18230489,499
18240493,501
18250531,500
18260572,495
18270582,500
18280621,503
18290665,502
18300676,500
18310717,500
18320759,500
18330773,503
18340818,500
18350862,498
18360903,498
18370915,504
18380956,501
18391000,502
18401014,503
18411056,506
18421094,501
18431103,501
18441143,505
18451185,503
18461194,498
18471233,508
18481267,503
18491269,504
18501299,501
18511336,498
18521345,498
18531386,499
18541427,502
18551438,500
18561478,504
18571516,494
18581529,502
18591572,506
18601615,501
18611654,496
18621664,503
18631702,499
18641739,501
18651745,506
18661784,506
18671822,502
18681829,500
18691866,502
18701907,500
18711919,504
18721958,504
18731997,503
18742004,509
18752042,508
18762078,512
18772084,512
18782124,518
18792163,513
18802170,520
18812207,526
18822247,523
18832251,526
18842288,529
18852329,525
18862371,521
18872383,524
18882425,522
18892469,520
18902484,513
18912530,508
18922580,514
18932598,508
18942644,505
18952690,505
18962704,502
18972749,499
18982796,499
18992811,503
19002855,503
19012899,496
19022912,498
19032957,500
19043001,498
19053017,500
19063063,502
19073108,506
19083121,500
19093161,501
19103203,499
19113244,508
19123254,504
19133297,508
19143340,501
19153353,504
19163395,506
19173436,500
19183449,501
19193489,502
19203530,508
19213541,498
19223581,505
19233618,500
19243625,504
19253665,500
19263707,498
19273716,504
19283755,505
19293794,507
19303802,505
19313843,499
19323878,507
19333887,505
19343923,504
19353966,506
19364007,508
19374016,505
19384056,499
19394096,506
19404106,504
19414147,500
19424189,506
19434201,509
19444242,506
19454284,505
19464294,501
19474331,505
19484373,503
19494392,503
19504440,505
19514485,497
19524502,496
19534549,501
19544596,505
19554611,502
19564657,503
19574703,512
19584718,512
19594763,513
19604806,524
19614850,524
19624859,528
19634897,532
19644934,528
19654940,528
19664976,533
19675015,528
19685022,525
19695058,522
19705094,524
19715099,515
19725140,509
19735179,512
19745189,510
19755227,505
19765267,509
19775276,501
19785317,499
19795359,501
19805367,494
19815407,500
19825450,499
19835459,502
19845498,503
19855536,498
19865576,503
19875589,507
19885626,499
19895666,504
19905675,507
19915710,508
19925747,506
19935757,508
19945800,507
19955838,501
19965844,508
19975884,504
19985924,502
19995932,502
20005969,499
20016005,503
20026011,501
20036048,494
20046085,499
20056091,500
20066127,497
20076166,500
20086172,499
20096211,495
20106248,499
20116287,492
20126297,496
20136336,493
20146377,493
20156387,491
20166427,495
20176467,500
20186475,499
20196517,502
20206558,502
20216571,500
20226613,501
20236652,497
20246665,508
20256705,507
20266744,508
20276751,510
20286792,507
20296831,512
20306841,510
20316884,514
20326928,517
20336943,513
20346985,525
20357027,526
20367066,531
20377077,534
20387119,539
20397160,538
20407168,535
20417210,529
20427249,530
20437259,533
20447296,525
20457336,521
20467346,516
20477383,521
20487420,518
20497425,514
20507459,511
20517492,507
20527500,508
20537540,508
20547579,505
20557589,502
20567630,497
20577671,498
20587682,499
20597723,496
20607764,502
20617806,499
20627815,497
20637854,505
20647893,504
20657900,498
20667937,499
20677973,504
20687979,509
20698020,508
20708062,512
20718075,506
20728116,505
20738156,509
20748165,502
20758205,507
20768246,506
20778257,509
20788300,499
20798346,500
20808356,505
20818403,504
20828447,497
20838460,505
20848505,500
20858550,501
20868595,496
20878611,504
20888655,501
20898694,503
20908704,503
20918746,501
20928788,498
20938799,504
20948843,498
20958888,493
20968904,497
20978948,498
20988989,501
20998999,501
21009040,499
21019084,499
21029095,503
21039137,500
21049181,496
21059192,496
21069233,504
21079276,505
21089289,503
21099331,510
21109371,511
21119416,509
21129429,521
21139472,522
21149516,526
21159532,527
21169579,534
21179625,527
21189642,534
21199689,525
21209737,529
21219753,527
21229800,524
21239849,519
21249866,513
21259913,513
21269957,511
21279968,509
21290009,507
21300054,506
21310068,497
21320114,501
21330162,504
21340181,500
21350228,493
21360275,500
21370321,501
21380336,505
21390382,504
21400431,499
21410450,507
21420499,501
21430549,502
21440570,506
21450620,509
21460667,507
21470683,508
21480726,503
21490772,503
21500789,508
21510832,504
21520881,506
21530899,505
21540944,503
21550989,504
21561003,499
21571045,503
21581091,495
21591105,497
21601151,501
21611197,502
21621241,499
21631255,500
21641297,497
21651336,500
21661344,496
21671384,503
21681429,502
21691440,501
21701483,502
21711526,505
21721540,499
21731581,497
21741627,502
21751641,503
21761687,504
21771728,505
21781740,505
21791781,505
21801822,504
21811832,510
21821871,506
21831908,510
21841915,515
21851955,521
21861992,517
21872030,521
21882039,532
21892078,528
21902118,531
21912127,532
21922166,530
21932205,530
21942217,523
21952259,517
21962300,517
21972309,517
21982351,516
21992391,508
22002399,507
22012442,504
22022483,508
22032493,504
22042533,497
22052574,499
22062583,500
22072624,495
22082663,496
22092670,496
22102706,499
22112745,498
22122790,497
22132801,503
22142845,496
22152891,504
22162902,505
22172945,507
22182987,501
22192999,505
22203040,503
22213080,506
22223090,501
22233132,499
22243175,501
22253188,502
22263231,504
22273272,501
22283283,502
22293323,504
22303362,503
22313370,501
22323412,497
22333449,503
22343457,496
22353495,501
22363532,504
22373567,499
22383572,503
22393610,500
22403648,499
22413652,505
22423695,500
22433737,503
22443746,504
22453786,497
22463825,497
22473833,502
22483877,496
22493920,492
22503933,499
22513976,500
22524016,491
22534026,501
22544066,503
22554105,503
22564120,507
22574168,510
22584215,517
22594232,517
22604269,519
22614307,519
22624345,519
22634351,524
22644385,519
22654421,518
22664428,512
22674464,514
22684500,510
22694509,512
22704547,510
22714585,506
22724594,501
22734634,495
22744673,499
22754682,503
22764722,501
22774761,498
22784770,501
22794811,501
22804853,503
22814866,501
22824906,500
22834945,501
22844954,505
22854996,499
22865041,511
22875080,507
22885093,508
22895136,511
22905180,507
22915192,505
22925236,507
22935282,501
22945301,509
22955350,504
22965396,503
22975407,499
22985450,500
22995493,501
23005504,500
23015548,502
23025590,498
23035601,499
23045639,490
23055680,494
23065692,493
23075734,498
23085777,499
23095789,500
23105833,496
23115875,496
23125918,498
23135929,495
23145972,491
23156016,499
23166027,499
23176070,499
23186116,494
23196130,496
23206173,500
23216214,500
23226224,499
23236269,500
23246316,499
23256330,500
23266374,505
23276419,505
23286431,508
23296473,510
23306517,517
23316533,518
23326578,524
23336625,526
23346639,530
23356681,529
23366725,533
23376767,523
23386779,530
23396823,529
23406866,523
23416880,525
23426925,519
23436968,521
23446982,517
23457027,517
23467071,511
23477086,508
23487128,501
23497173,506
23507186,501
23517228,502
23527272,498
23537286,503
23547330,501
23557375,497
23567388,498
23577432,503
23587475,497
23597488,499
23607528,500
23617573,496
23627615,495
23637627,500
23647668,501
23657712,499
23667724,502
23677765,502
23687806,504
23697817,505
23707860,503
23717903,504
23727915,506
23737959,500
23748000,498
23758012,503
23768054,500
23778094,505
23788106,502
23798149,501
23808190,503
23818198,506
23828237,504
23838279,500
23848290,506
23858329,499
23868370,501
23878409,500
23888421,502
23898462,502
23908503,497
23918513,508
23928555,505
23938594,503
23948601,504
23958639,507
23968675,507
23978682,505
23988720,508
23998759,508
24008766,502
24018797,508
24028832,510
24038840,512
24048878,516
24058920,520
24068927,519
24078970,529
24089012,531
24099020,534
24109060,531
24119101,529
24129141,530
24139151,531
24149194,531
24159238,529
24169254,520
24179300,514
24189345,511
24199359,512
24209406,514
24219452,513
24229469,508
24239515,499
24249562,499
24259576,499
24269622,500
24279662,502
24289675,499
24299718,496
24309758,499
24319764,500
24329803,495
24339844,494
24349854,499
24359893,499
24369932,501
24379971,497
24389979,497
24400016,496
24410054,499
24420064,498
24430104,503
24440146,500
24450156,495
24460196,503
24470233,502
24480243,501
24490280,496
24500318,501
24510322,497
24520363,501
24530405,499
24540412,499
24550449,498
24560481,497
24570487,500
24580526,504
24590563,504
24600573,502
24610611,501
24620650,503
24630688,496
24640694,502
24650732,503
24660772,502
24670778,498
24680816,501
24690855,504
24700863,500
24710899,502
24720935,501
24730943,504
24740983,501
24751026,502
24761035,503
24771069,494
24781105,504
24791108,500
24801145,502
24811182,501
24821190,502
24831224,502
24841262,503
24851270,508
24861306,508
24871342,508
24881378,515
24891383,516
24901421,521
24911458,517
24921465,526
24931502,522
24941541,526
24951550,520
24961590,520
24971627,524
24981634,523
24991671,519
25001701,517
25011706,516
25021739,514
25031765,512
25041769,507
25051804,510
25061837,506
25071838,506
25081872,498
25091909,504
25101913,505
25111948,498
25121986,496
25132021,501
25142024,504
25152055,499
25162091,503
25172096,505
25182133,497
25192166,505
25202170,505
25212205,504
25222242,502
25232247,505
25242286,504
25252324,499
25262330,504
25272367,502
25282407,499
25292409,502
25302445,504
25312483,497
25322488,501
25332528,501
25342567,497
25352574,494
25362609,500
25372647,501
25382685,496
25392691,501
25402727,502
25412767,505
25422774,499
25432812,504
25442855,496
25452869,502
25462914,504
25472959,500
25482975,505
25493023,497
25503070,504
25513086,500
25523132,504
25533177,498
25543185,501
25553225,504
25563264,499
25573270,497
25583308,503
25593348,500
25603356,503
25613395,503
25623432,498
25633469,500
25643477,502
25653513,504
25663553,501
25673562,509
25683600,507
25693639,510
25703646,515
25713686,509
25723726,515
25733735,516
25743772,519
25753811,513
25763819,516
25773856,518
25783895,512
25793904,513
25803941,515
25813978,512
25823989,511
25834032,510
25844073,505
25854077,510
25864112,505
25874151,506
25884189,503
25894197,504
25904231,501
25914270,505
25924278,507
25934315,503
25944350,505
25954356,502
25964392,500
25974426,503
25984433,496
25994469,504
26004503,505
26014509,505
26024549,501
26034589,500
26044597,502
26054636,503
26064674,499
26074684,499
26084724,496
26094760,503
26104762,502
26114798,505
26124835,505
26134870,496
26144873,498
26154909,502
26164945,504
26174952,505
26184989,502
26195027,501
26205033,507
26215067,506
26225104,502
26235114,509
26245151,502
26255189,501
26265195,506
26275233,504
26285270,501
26295279,504
26305315,504
26315349,510
26325352,505
26335392,506
26345429,506
26355436,499
26365475,507
26375514,504
26385552,500
26395561,509
26405602,504
26415640,506
26425649,503
26435687,503
26445726,505
26455736,506
26465773,506
26475809,501
26485815,509
26495850,510
26505886,509
26515892,510
26525929,516
26535964,519
26545969,516
26556007,517
26566045,515
26576052,518
26586093,513
26596134,516
26606141,509
26616174,512
26626208,510
26636244,508
26646251,511
26656290,509
26666328,505
26676337,503
26686376,510
26696412,505
26706419,509
26716457,503
26726493,501
26736499,505
26746541,505
26756583,510
26766596,503
26776639,507
26786683,507
26796697,501
26806742,508
26816786,510
26826798,509
26836840,509
26846883,504
26856894,506
26866933,504
26876975,506
26887019,508
26897029,510
26907067,505
26917103,504
26927113,507
26937149,501
26947186,504
26957189,508
26967223,507
26977257,502
26987259,504
26997294,507
27007329,502
27017335,502
27027371,509
27037405,509
27047410,504
27057446,502
27067481,502
27077483,504
27087518,508
27097552,504
27107555,504
27117593,500
27127628,509
27137664,508
27147666,500
27157700,505
27167737,498
27177747,503
27187784,504
27197822,506
27207826,505
27217860,508
27227896,509
27237901,512
27247939,507
27257977,514
27267981,516
27278019,520
27288056,521
27298058,525
27308091,519
27318126,523
27328130,520
27338170,523
27348207,519
27358213,518
27368250,515
27378287,514
27388319,514
27398320,512
27408356,506
27418391,511
27428396,504
27438432,507
27448466,505
27458472,510
27468508,505
27478543,505
27488547,507
27498583,502
27508621,508
27518628,506
27528663,503
27538698,504
27548706,504
27558746,502
27568784,508
27578792,502
27588828,504
27598869,507
27608878,505
27618918,508
27628954,505
27638991,504
27648996,502
27659035,508
27669074,499
27679081,505
27689116,507
27699151,499
27709157,505
27719197,499
27729236,504
27739243,502
27749280,508
27759321,498
27769334,505
27779376,505
27789414,506
27799422,504
27809460,507
27819498,506
27829505,502
27839540,500
27849578,503
27859586,504
27869622,506
27879661,509
27889700,507
27899708,507
27909746,501
27919783,503
27929794,505
27939837,510
27949880,510
27959889,510
27969927,515
27979963,515
27989966,521
28000002,521
28010038,524
28020044,529
28030082,529
28040118,527
28050124,523
28060159,522
28070196,523
28080202,517
28090238,518
28100274,517
28110279,512
28120313,510
28130348,514
28140383,508
28150382,507
28160415,500
28170449,500
28180454,499
28190489,503
28200526,499
28210533,504
28220570,502
28230606,502
28240613,503
28250650,497
28260685,503
28270692,505
28280729,505
28290767,501
28300776,500
28310813,500
28320851,504
28330859,508
28340896,502
28350935,509
28360944,501
28370984,507
28381021,504
28391057,503
28401064,506
28411102,498
28421141,504
28431150,505
28441192,500
28451237,505
28461250,505
28471288,505
28481322,501
28491329,506
28501366,502
28511399,508
28521404,507
28531442,506
28541480,502
28551485,500
28561519,503
28571554,504
28581559,501
28591596,510
28601632,510
28611636,506
28621672,506
28631709,513
28641750,507
28651760,515
28661801,521
28671841,520
28681851,529
28691892,530
28701933,524
28711944,530
28721987,527
28732030,524
28742039,528
28752079,527
28762116,524
28772122,520
28782155,522
28792187,519
28802190,515
28812226,508
28822263,507
28832270,504
28842307,507
28852347,505
28862355,505
28872394,502
28882433,499
28892474,504
28902483,497
28912520,499
28922558,496
28932566,503
28942604,500
28952641,506
28962642,500
28972681,507
28982719,507
28992724,501
29002759,505
29012796,505
29022804,505
29032841,502
29042879,498
29052888,505
29062930,499
29072970,506
29082978,501
29093015,504
29103056,502
29113066,500
29123105,500
29133143,506
29143184,501
29153192,501
29163228,506
29173268,499
29183277,504
29193318,499
29203354,504
29213360,508
29223400,508
29233440,509
29243447,504
29253484,504
29263522,508
29273531,503
29283573,501
29293613,507
29303624,506
29313664,506
29323703,502
29333713,511
29343750,512
29353785,513
29363791,519
29373827,519
29383865,521
29393903,529
29403910,523
29413947,529
29423984,525
29433990,533
29444029,532
29454065,524
29464067,527
29474099,522
29484133,523
29494138,512
29504176,518
29514213,506
29524220,505
29534257,511
29544293,501
29554301,506
29564343,506
29574382,505
29584389,500
29594430,496
29604474,504
29614483,504
29624525,499
29634565,501
29644610,504
29654624,502
29664663,506
29674705,502
29684716,501
29694755,503
29704795,500
29714805,503
29724849,502
29734885,502
29744892,501
29754930,503
29764965,502
29774970,499
29785008,499
29795043,502
29805049,502
29815085,502
29825124,503
29835132,497
29845173,500
29855213,501
29865223,504
29875263,503
29885304,502
29895345,501
29905352,502
29915393,501
29925431,498
29935439,504
29945478,498
29955519,496
29965527,504
29975568,503
29985609,500
29995619,499
30005663,498
30015704,501
30025714,503
30035752,500
30045790,504
30055798,501
30065834,505
30075872,504
30085878,505
30095916,506
30105955,510
30115965,510
30126006,509
30136044,516
30146082,510
30156092,511
30166130,516
30176171,520
30186180,512
30196220,513
30206260,519
30216263,515
30226301,514
30236339,510
30246349,513
30256390,509
30266431,508
30276443,502
30286483,506
30296525,497
30306534,501
30316574,500
30326614,499
30336619,506
30346656,502
30356696,501
30366706,504
30376745,504
30386781,506
30396819,507
30406826,505
30416865,507
30426905,505
30436911,504
30446947,509
30456986,504
30466997,501
30477037,507
30487075,503
30497079,508
30507116,503
30517152,507
30527160,505
30537197,499
30547237,497
30557246,504
30567283,498
30577321,501
30587324,504
30597361,505
30607400,505
30617408,505
30627443,506
30637480,508
30647516,502
30657521,504
30667557,504
30677595,505
30687601,503
30697640,507
30707680,502
30717689,504
30727727,499
30737766,507
30747775,500
30757811,504
30767851,507
30777854,501
30787897,509
30797939,507
30807951,512
30817991,516
30828032,520
30838039,524
30848079,526
30858119,529
30868126,526
30878165,522
30888208,527
30898250,528
30908262,525
30918309,523
30928354,523
30938368,519
30948411,519
30958452,512
30968464,505
30978509,510
30988551,509
30998563,498
31008598,506
31018637,505
31028647,501
31038682,503
31048719,499
31058729,495
31068768,500
31078808,497
31088816,498
31098854,500
31108894,501
31118906,502
31128946,495
31138986,497
31149031,497
31159043,499
31169085,500
31179128,503
31189139,495
31199182,502
31209224,503
31219238,501
31229280,506
31239323,505
31249337,506
31259381,505
31269422,508
31279435,498
31289476,506
31299517,499
31309531,499
31319576,505
31329621,504
31339638,499
31349682,499
31359727,499
31369739,500
31379780,506
31389822,508
31399865,504
31409881,506
31419927,503
31429971,504
31439980,506
31450025,506
31460070,500
31470083,505
31480124,506
31490162,502
31500172,504
31510216,505
31520257,510
31530268,508
31540309,505
31550351,508
31560361,510
31570398,514
31580434,517
31590442,519
31600486,519
31610529,525
31620537,525
31630578,516
31640615,520
31650653,518
31660659,524
31670697,521
31680735,519
31690744,515
31700782,513
31710821,515
31720828,512
31730864,508
31740898,504
31750905,506
31760942,500
31770982,502
31780997,506
31791042,505
31801085,502
31811098,504
31821141,499
31831185,505
31841191,506
31851235,503
31861279,504
31871290,505
31881332,505
31891373,504
31901411,505
31911418,499
31921459,507
31931497,506
31941499,508
31951536,504
31961576,505
31971589,509
31981632,504
31991673,504
32001683,504
32011722,505
32021761,498
32031767,505
32041806,502
32051846,500
32061856,498
32071893,504
32081929,501
32091935,503
32101976,505
32112018,501
32122026,504
32132067,505
32142109,504
32152153,504
32162164,507
32172207,505
32182249,506
32192259,505
32202299,504
32212338,504
32222346,501
32232386,505
32242427,503
32252437,504
32262478,507
32272522,502
32282531,507
32292566,508
32302606,506
32312611,506
32322648,514
32332688,510
32342696,512
32352731,519
32362767,521
32372775,518
32382813,516
32392851,523
32402888,523
32412894,520
32422929,515
32432962,518
32442966,512
32453001,516
32463037,514
32473045,506
32483082,510
32493119,508
32503126,508
32513162,506
32523200,504
32533206,508
32543239,507
32553275,500
32563277,505
32573312,508
32583347,500
32593351,506
32603388,499
32613427,505
32623435,504
32633474,506
32643515,509
32653552,505
32663560,505
32673597,505
32683634,508
32693640,510
32703678,506
32713715,505
32723722,507
32733759,509
32743795,511
32753800,509
32763842,510
32773883,505
32783895,503
32793935,507
32803975,505
32813984,508
32824024,506
32834066,506
32844074,507
32854113,504
32864155,502
32874169,501
32884213,502
32894258,504
32904301,503
32914314,504
32924355,499
32934394,507
32944402,500
32954440,502
32964478,507
32974486,508
32984524,509
32994562,508
33004570,507
33014613,505
33024656,502
33034666,508
33044709,507
33054750,505
33064758,509
33074797,501
33084834,504
33094843,508
33104884,504
33114924,504
33124932,506
33134972,508
33145011,503
33155053,504
33165065,512
33175108,510
33185147,519
33195157,519
33205197,523
33215237,522
33225244,516
33235286,524
33245326,524
33255339,522
33265382,520
33275428,516
33285442,513
33295487,516
33305532,514
33315543,513
33325584,511
33335626,507
33345637,512
33355679,508
33365725,506
33375742,507
33385789,506
33395834,510
33405879,510
33415893,509
33425934,501
33435974,509
33445984,506
33456025,502
33466065,508
33476075,501
33486118,508
33496161,505
33506173,508
33516218,501
33526265,510
33536282,507
33546328,508
33556373,510
33566388,507
33576434,508
33586478,505
33596491,508
33606540,508
33616596,509
33626618,505
33636669,506
33646721,506
33656776,508
33666797,501
33676851,503
33686903,503
33696916,507
33706960,507
33717007,507
33727026,500
33737073,505
33747120,500
33757137,510
33767183,502
33777226,507
33787238,504
33797280,503
33807326,501
33817341,507
33827388,508
33837435,503
33847450,508
33857497,503
33867545,503
33877565,510
33887611,509
33897657,504
33907702,510
33917716,504
33927760,509
33937804,516
33947821,517
33957870,520
33967919,519
33977936,523
33987982,522
33998026,521
34008038,522
34018082,522
34028127,525
34038141,524
34048188,515
34058234,517
34068248,515
34078291,515
34088334,514
34098345,511
34108385,508
34118424,506
34128438,507
34138484,510
34148529,505
34158575,508
34168588,500
34178631,505
34188675,502
34198688,501
34208733,505
34218778,500
34228787,505
34238834,502
34248880,506
34258893,506
34268938,505
34278981,507
34288997,508
34299041,507
34309084,502
34319094,509
34329137,504
34339182,505
34349197,506
34359245,503
34369291,504
34379308,508
34389358,501
34399411,507
34409463,506
34419481,505
34429522,507
34439564,504
34449571,507
34459610,508
34469651,505
34479662,501
34489708,503
34499752,503
34509762,507
34519805,505
34529850,507
34539861,505
34549901,504
34559943,505
34569954,501
34579997,508
34590036,508
34600047,504
34610090,501
34620134,505
34630143,499
34640187,502
34650232,507
34660279,500
34670295,506
34680341,504
34690386,510
34700402,506
34710451,512
34720496,513
34730509,513
34740552,513
34750597,517
34760610,521
34770654,515
34780699,521
34790709,519
34800751,522
34810789,522
34820797,522
34830833,522
34840871,512
34850881,518
34860918,513
34870957,517
34880965,511
34891001,515
34901039,513
34911078,511
34921079,509
34931116,506
34941150,502
34951155,507
34961196,508
34971235,507
34981244,506
34991283,501
35001319,509
35011327,509
35021363,507
35031401,511
35041411,508
35051448,506
35061487,509
35071495,503
35081533,501
35091570,504
35101575,506
35111609,504
35121642,504
35131647,508
35141682,504
35151720,502
35161759,503
35171766,500
35181802,505
35191843,501
35201853,505
35211890,505
35221929,506
35231939,510
35241981,508
35252023,503
35262035,499
35272077,498
35282117,506
35292123,506
35302163,503
35312203,503
35322212,504
35332253,503
35342295,508
35352306,502
35362347,504
35372388,506
35382399,508
35392439,509
35402475,507
35412516,498
35422532,509
35432582,502
35442632,505
35452650,500
35462693,506
35472739,505
35482749,504
35492790,503
35502826,502
35512834,510
35522872,508
35532910,512
35542915,515
35552949,513
35562985,516
35572990,518
35583027,521
35593065,522
35603070,519
35613108,520
35623148,522
35633157,516
35643196,509
35653241,517
35663291,513
35673304,509
35683347,502
35693390,510
35703402,508
35713444,505
35723483,508
35733493,509
35743535,504
35753571,501
35763580,507
35773619,502
35783655,507
35793665,504
35803708,505
35813751,504
35823760,510
35833800,510
35843836,505
35853840,511
35863879,508
35873918,502
35883930,510
35893967,500
35904008,501
35914047,507
35924054,510
35934093,507
35944133,506
35954141,505
35964181,506
35974218,506
35984222,507
35994256,504
36004289,506
36014292,508
36024327,505
36034362,505
36044366,500
36054399,506
36064433,504
36074435,499
36084467,504
36094499,505
36104502,501
36114536,499
36124572,508
36134577,507
36144614,505
36154648,506
36164681,505
36174681,504
36184714,506
36194750,507
36204756,499
36214794,505
36224830,506
36234835,507
36244872,509
36254908,508
36264911,506
36274946,508
36284983,508
36294990,503
36305028,503
36315068,507
36325075,504
36335111,510
36345147,514
36355154,511
36365190,513
36375222,511
36385229,513
36395268,513
36405305,512
36415341,517
36425345,509
36435380,513
36445418,508
36455424,510
36465460,512
36475496,508
36485505,509
36495543,510
36505580,510
36515586,509
36525621,505
36535660,506
36545669,508
36555709,506
36565745,506
36575750,507
36585789,507
36595829,511
36605838,502
36615878,506
36625918,508
36635924,507
36645962,508
36655997,505
36666031,507
36676034,508
36686070,504
36696107,511
36706113,508
36716151,504
36726189,505
36736195,501
36746233,509
36756270,503
36766276,502
36776311,505
36786345,510
36796348,507
36806382,505
36816419,505
36826426,501
36836461,511
36846499,505
36856505,508
36866542,505
36876584,502
36886600,510
36896645,507
36906693,508
36916733,514
36926738,505
36936778,511
36946817,510
36956826,508
36966867,506
36976906,505
36986912,506
36996946,508
37006981,509
37016990,509
37027027,512
37037067,510
37047072,510
37057108,514
37067143,516
37077149,515
37087181,513
37097216,518
37107222,515
37117259,525
37127290,519
37137293,524
37147327,526
37157360,519
37167397,519
37177407,525
37187441,519
37197474,516
37207478,514
37217517,517
37227555,514
37237562,511
37247598,512
37257637,513
37267645,503
37277684,510
37287724,505
37297732,508
37307769,508
37317807,505
37327813,505
37337854,505
37347893,508
37357903,505
37367941,509
37377978,506
37387987,508
37398025,509
37408065,508
37418103,504
37428116,507
37438156,507
37448194,510
37458199,509
37468238,506
37478276,508
37488285,502
37498322,509
37508360,501
37518368,509
37528407,508
37538448,508
37548459,508
37558498,501
37568536,503
37578545,500
37588582,503
37598619,507
37608624,506
37618660,505
37628697,507
37638701,507
37648736,500
37658772,508
37668808,504
37678811,508
37688845,500
37698879,507
37708884,499
37718922,507
37728959,507
37738964,501
37749001,507
37759040,506
37769049,510
37779089,508
37789124,505
37799133,500
37809170,510
37819207,509
37829213,503
37839249,512
37849285,510
37859293,512
37869334,512
37879376,512
37889384,516
37899422,515
37909458,520
37919496,517
37929501,519
37939536,516
37949571,514
37959578,512
37969616,518
37979655,514
37989661,512
37999699,511
38009739,512
38019748,511
38029787,513
38039827,506
38049838,508
38059877,506
38069915,508
38079920,505
38089956,510
38099992,503
38109998,507
38120036,508
38130075,506
38140080,511
38150114,509
38160152,500
38170190,509
38180195,506
38190234,509
38200269,504
38210273,509
38220315,507
38230357,501
38240366,510
38250405,509
38260440,503
38270448,506
38280486,507
38290525,507
38300537,505
38310577,500
38320613,506
38330621,504
38340659,501
38350695,507
38360700,508
38370734,503
38380768,507
38390776,501
38400816,506
38410855,508
38420895,502
38430905,508
38440943,505
38450983,509
38460989,503
38471027,508
38481066,507
38491074,507
38501111,506
38511145,506
38521151,508
38531186,507
38541223,500
38551230,507
38561265,510
38571301,511
38581309,504
38591347,515
38601383,507
38611389,516
38621425,515
38631460,518
38641465,515
38651501,516
38661538,512
38671575,519
38681580,517
38691617,512
38701653,512
38711661,514
38721699,510
38731735,515
38741737,509
38751770,507
38761806,511
38771807,509
38781837,513
38791867,503
38801866,511
38811897,505
38821929,507
38831934,507
38841970,506
38852005,508
38862011,511
38872045,503
38882081,510
38892085,510
38902121,506
38912156,505
38922191,506
38932197,508
38942233,508
38952268,511
38962271,509
38972305,512
38982339,504
38992343,507
39002374,508
39012411,508
39022414,506
39032450,507
39042486,501
39052493,504
39062528,503
39072566,498
39082572,504
39092607,501
39102644,507
39112652,508
39122687,508
39132724,505
39142725,502
39152758,503
39162795,507
39172830,504
39182836,501
39192876,509
39202915,509
39212920,507
39222956,509
39232995,507
39243002,505
39253038,502
39263075,501
39273081,502
39283116,501
39293151,508
39303154,511
39313187,511
39323223,514
39333229,514
39343263,516
39353295,517
39363299,513
39373335,516
39383368,520
39393370,516
39403400,522
39413429,518
39423463,521
39433466,520
39443497,516
39453528,516
39463528,519
39473556,515
39483584,508
39493584,515
39503612,514
39513638,507
39523637,512
39533672,508
39543708,511
39553712,504
39563746,505
39573778,510
39583782,509
39593817,507
39603850,502
39613854,502
39623890,508
39633924,510
39643932,507
39653973,501
39664014,509
39674054,505
39684062,503
39694103,507
39704142,503
39714148,508
39724183,505
39734221,509
39744227,510
39754265,508
39764303,508
39774314,507
39784355,509
39794397,509
39804408,509
39814451,508
39824494,509
39834505,503
39844548,505
39854591,507
39864604,504
39874649,508
39884691,503
39894708,508
39904751,510
39914796,508
39924838,508
39934849,503
39944890,509
39954927,508
39964936,504
39974976,505
39985020,508
39995032,504
40005074,509
40015117,507
40025128,506
40035170,504
40045210,509
40055217,502
40065257,508
40075295,508
40085303,505
40095338,507
40105375,513
40115381,510
40125419,517
40135455,514
40145458,521
40155492,521
40165528,524
40175564,522
40185569,525
40195602,521
40205638,519
40215645,522
40225681,516
40235720,519
40245726,515
40255761,514
40265799,512
40275806,517
40285844,509
40295879,512
40305885,511
40315921,511
40325953,511
40335957,505
40345995,505
40356033,508
40366038,506
40376077,511
40386116,500
40396124,507
40406161,508
40416197,509
40426235,508
40436241,510
40446278,508
40456317,507
40466327,511
40476364,505
40486403,511
40496412,508
40506451,503
40516492,506
40526503,501
40536552,509
40546601,503
40556620,503
40566670,505
40576718,506
40586733,504
40596780,506
40606828,508
40616847,501
40626893,504
40636936,504
40646941,501
40656979,507
40667019,504
40677057,506
40687063,507
40697101,508
40707139,507
40717146,510
40727185,503
40737225,507
40747235,506
40757273,503
40767312,503
40777319,504
40787359,508
40797401,504
40807409,509
40817447,509
40827485,509
40837495,508
40847535,504
40857579,505
40867592,510
40877631,512
40887672,506
40897685,512
40907725,513
40917764,520
40927804,520
40937812,525
40947853,518
40957896,524
40967909,525
40977948,527
40987993,527
40998006,523
41008050,519
41018093,518
41028099,523
41038137,518
41048177,521
41058189,520
41068228,516
41078268,512
41088278,513
41098319,515
41108361,509
41118374,511
41128417,505
41138458,509
41148468,509
41158508,501
41168545,504
41178583,502
41188589,503
41198625,501
41208664,511
41218677,505
41228724,501
41238770,506
41248776,503
41258813,507
41268850,505
41278857,508
41288895,507
41298932,507
41308936,508
41318974,500
41329016,507
41339027,504
41349066,508
41359104,501
41369112,507
41379153,501
41389191,507
41399199,506
41409237,504
41419279,508
41429318,504
41439325,506
41449366,509
41459408,505
41469416,500
41479455,506
41489494,508
41499503,503
41509542,509
41519581,503
41529589,503
41539629,503
41549671,506
41559674,503
41569713,503
41579751,508
41589759,500
41599801,509
41609841,501
41619851,510
41629891,508
41639933,508
41649947,506
41659991,506
41670031,506
41680075,502
41690087,504
41700127,507
41710167,506
41720177,512
41730215,512
41740255,515
41750268,514
41760308,516
41770347,520
41780355,520
41790396,521
41800433,519
41810445,526
41820489,526
41830532,520
41840545,518
41850588,520
41860631,521
41870645,517
41880691,516
41890735,516
41900749,515
41910792,511
41920833,514
41930877,512
41940886,511
41950930,509
41960972,510
41970980,505
41981021,506
41991061,509
42001071,504
42011112,508
42021153,506
42031162,506
42041199,507
42051239,510
42061252,508
42071300,507
42081352,502
42091373,504
42101417,505
42111458,504
42121468,503
42131507,506
42141547,504
42151558,504
42161600,505
42171638,503
42181680,503
42191691,504
42201733,503
42211777,504
42221790,506
42231830,498
42241872,501
42251883,500
42261925,505
42271964,505
42281974,502
42292013,506
42302052,508
42312058,507
42322097,502
42332138,507
42342150,504
42352190,508
42362227,503
42372234,501
42382274,512
42392314,507
42402326,510
42412364,512
42422403,510
42432444,507
42442453,506
42452495,507
42462532,510
42472537,504
42482578,505
42492618,507
42502629,505
42512670,503
42522710,507
42532718,504
42542757,507
42552793,504
42562803,508
42572844,509
42582882,503
42592886,510
42602919,501
42612956,512
42622964,512
42633001,513
42643038,509
42653045,520
42663082,513
42673122,521
42683161,522
42693172,522
42703211,519
42713248,522
42723260,523
42733302,517
42743343,523
42753351,521
42763393,518
42773436,511
42783446,514
42793487,512
42803528,510
42813537,510
42823579,511
42833620,503
42843630,505
42853668,510
42863708,507
42873721,506
42883761,510
42893800,510
42903809,506
42913849,512
42923887,507
42933927,506
42943936,506
42953975,508
42964016,507
42974023,506
42984063,504
42994099,507
43004105,498
43014144,502
43024183,499
43034192,508
43044231,498
43054266,506
43064274,505
43074310,512
43084348,501
43094355,508
43104393,508
43114431,506
43124440,505
43134480,502
43144515,502
43154522,508
43164560,505
43174602,502
43184645,504
43194655,507
43204696,509
43214739,509
43224748,505
43234790,500
43244832,508
43254841,508
43264881,505
43274920,504
43284929,504
43294967,506
43305004,503
43315010,506
43325047,507
43335086,501
43345093,511
43355131,509
43365170,508
43375177,503
43385215,505
43395252,509
43405258,507
43415296,504
43425333,503
43435369,503
43445378,510
43455419,511
43465459,511
43475470,516
43485513,518
43495554,522
43505564,520
43515604,527
43525645,524
43535654,521
43545694,526
43555735,524
43565746,520
43575788,519
43585831,520
43595842,516
43605881,513
43615921,512
43625929,516
43635965,514
43646003,516
43656010,509
43666051,511
43676093,511
43686134,501
43696145,505
43706187,505
43716225,505
43726232,508
43736269,505
43746307,508
43756315,509
43766354,506
43776395,508
43786405,508
43796444,501
43806483,501
43816489,500
43826527,500
43836565,508
43846567,510
43856604,503
43866643,506
43876653,504
43886696,503
43896735,500
43906744,507
43916786,505
43926827,503
43936864,505
43946872,508
43956910,511
43966948,504
43976956,504
43986994,506
43997032,504
44007041,499
44017083,500
44027127,506
44037138,506
44047182,506
44057225,501
44067238,509
44077282,504
44087324,501
44097334,504
44107378,506
44117419,507
44127426,505
44137470,509
44147513,501
44157525,507
44167568,509
44177611,506
44187654,504
44197664,508
44207704,502
44217741,506
44227750,508
44237791,505
44247835,508
44257843,506
44267883,507
44277924,503
44287938,505
44297978,504
44308020,508
44318032,513
44328077,516
44338119,516
44348129,512
44358168,523
44368208,526
44378218,517
44388256,519
44398295,519
44408306,523
44418346,523
44428389,521
44438430,523
44448438,517
44458477,510
44468519,512
44478528,508
44488569,514
44498609,513
44508622,509
44518668,512
44528715,508
44538728,508
44548770,510
44558811,509
44568821,508
44578859,506
44588897,511
44598906,505
44608946,504
44618986,503
44628992,509
44639035,505
44649077,508
44659087,510
44669125,509
44679166,503
44689205,511
44699216,503
44709254,506
44719293,507
44729303,505
44739341,507
44749384,509
44759395,501
44769436,510
44779477,509
44789489,508
44799531,509
44809573,508
44819584,509
44829624,502
44839663,508
44849675,502
44859716,500
44869762,503
44879778,507
44889823,509
44899863,509
44909874,509
44919914,507
44929953,504
44939995,510
44950007,509
44960051,506
44970093,507
44980100,506
44990143,509
45000185,504
45010196,504
45020232,508
45030270,505
45040276,506
45050315,501
45060352,504
45070361,505
45080398,505
45090436,504
45100445,506
45110485,502
45120527,502
45130536,509
45140579,505
45150621,508
45160629,505
45170668,502
45180710,500
45190753,504
45200766,505
45210809,505
45220853,506
45230868,509
45240909,515
45250951,518
45260960,516
45271001,524
45281044,519
45291055,523
45301096,521
45311134,517
45321141,520
45331182,515
45341224,520
45351234,515
45361277,514
45371320,515
45381332,516
45391373,512
45401413,508
45411420,512
45421463,509
45431503,503
45441542,511
45451551,500
45461594,506
45471636,506
45481645,506
45491685,506
45501728,507
45511739,502
45521780,507
45531821,507
45541827,506
45551867,506
45561911,511
45571924,502
45581966,507
45592009,501
45602022,506
45612064,507
45622105,508
45632116,502
45642156,506
45652197,506
45662210,501
45672253,506
45682295,504
45692338,503
45702350,506
45712391,508
45722429,502
45732441,499
45742481,507
45752521,502
45762532,504
45772571,503
45782614,505
45792625,507
45802667,505
45812708,510
45822717,505
45832759,501
45842801,504
45852812,504
45862850,504
45872891,502
45882903,509
45892946,508
45902990,506
45913003,507
45923045,508
45933087,506
45943128,509
45953137,504
45963179,507
45973222,506
45983234,504
45993274,508
46003315,500
46013327,506
46023369,501
46033409,508
46043420,505
46053462,500
46063505,506
46073516,505
46083555,509
46093593,511
46103602,506
46113645,511
46123689,509
46133700,517
46143741,512
46153784,514
46163798,524
46173843,521
46183887,525
46193932,521
46203945,522
46213988,520
46224031,516
46234043,512
46244086,515
46254130,516
46264143,512
46274186,506
46284227,511
46294239,506
46304281,510
46314320,507
46324329,509
46334371,507
46344414,502
46354427,507
46364468,510
46374512,502
46384526,507
46394568,507
46404611,504
46414622,502
46424665,508
46434707,508
46444747,501
46454759,503
46464797,507
46474839,504
46484847,502
46494888,508
46504928,504
46514938,507
46524980,503
46535020,504
46545033,504
46555075,507
46565119,506
46575133,504
46585178,506
46595220,505
46605232,502
46615272,506
46625313,506
46635324,509
46645367,507
46655407,502
46665413,502
46675453,505
46685493,504
46695531,500
46705536,508
46715576,507
46725614,504
46735621,508
46745660,500
46755697,505
46765705,499
46775744,506
46785782,502
46795789,506
46805827,510
46815868,502
46825877,506
46835919,508
46845963,504
46855974,508
46866016,508
46876059,505
46886070,507
46896112,504
46906153,501
46916162,510
46926201,504
46936240,509
46946279,510
46956289,507
46966327,505
46976364,502
46986372,507
46996407,504
47006443,513
47016448,509
47026483,518
47036520,516
47046527,518
47056566,512
47066605,518
47076617,512
47086662,519
47096704,514
47106711,516
47116753,517
47126795,506
47136806,510
47146848,503
47156890,506
47166901,509
47176945,507
47186989,506
47197032,504
47207046,500
47217089,499
47227131,504
47237142,505
47247184,508
47257226,503
47267234,508
47277269,509
47287304,503
47297308,508
47307343,505
47317378,506
47327386,508
47337424,510
47347463,504
47357472,508
47367509,504
47377547,509
47387555,510
47397596,509
47407636,510
47417640,510
47427673,503
47437710,510
47447749,510
47457758,507
47467798,503
47477836,504
47487845,502
47497885,504
47507925,508
47517935,510
47527970,510
47538003,509
47548007,502
47558044,510
47568082,501
47578092,508
47588128,505
47598169,507
47608178,510
47618219,501
47628258,510
47638267,509
47648308,508
47658347,506
47668355,508
47678393,507
47688430,500
47698471,504
47708479,508
47718518,509
47728557,509
47738565,501
47748604,507
47758642,509
47768650,510
47778689,501
47788727,512
47798735,512
47808782,511
47818829,514
47828844,511
47838890,513
47848931,515
47858939,516
47868980,509
47879019,514
47889027,517
47899067,510
47909108,510
47919119,514
47929161,511
47939208,504
47949250,506
47959262,507
47969303,510
47979346,506
47989360,508
47999403,511
48009446,501
48019457,510
48029500,503
48039540,506
48049553,504
48059595,508
48069637,507
48079647,507
48089690,510
48099733,507
48109744,511
48119786,511
48129826,505
48139839,504
48149884,510
48159927,503
48169940,509
48179984,503
48190025,508
48200069,509
48210082,507
48220124,508
48230166,507
48240173,503
48250211,510
48260250,506
48270260,505
48280305,509
48290347,503
48300353,510
48310388,508
48320424,508
48330429,508
48340466,509
48350506,510
48360513,511
48370552,504
48380591,511
48390600,507
48400643,507
48410686,505
48420697,512
48430740,510
48440782,502
48450822,501
48460827,503
48470866,507
48480906,511
48490917,509
48500959,510
48510997,509
48521010,511
48531057,505
48541105,514
48551119,512
48561164,514
48571206,512
48581214,512
48591254,510
48601293,519
48611299,519
48621334,514
48631372,522
48641381,518
48651422,521
48661467,517
48671479,514
48681522,519
48691562,516
48701604,516
48711615,511
48721657,513
48731698,511
48741707,510
48751747,515
48761788,512
48771799,510
48781841,509
48791880,507
48801889,514
48811931,508
48821977,512
48831989,505
48842032,512
48852070,508
48862078,509
48872117,511
48882160,510
48892173,515
48902218,506
48912259,503
48922270,510
48932312,509
48942354,512
48952398,504
48962410,510
48972453,510
48982496,504
48992510,510
49002555,509
49012599,508
49022613,510
49032657,508
49042703,509
49052718,508
49062766,504
49072814,508
49082830,507
49092870,510
49102909,502
49112916,508
49122956,508
49132999,508
49143012,511
49153055,507
49163097,511
49173110,501
49183150,503
49193190,511
49203233,509
49213243,507
49223287,508
49233335,506
49243353,505
49253402,508
49263450,509
49273467,507
49283513,509
49293563,505
49303581,506
49313627,509
49323675,506
49333689,510
49343735,513
49353781,516
49363798,514
49373843,518
49383885,523
49393895,515
49403941,524
49413982,515
49423991,514
49434030,524
49444065,515
49454101,519
49464108,513
49474147,517
49484184,511
49494192,514
49504232,513
49514275,515
49524290,511
49534334,508
49544377,510
49554389,508
49564431,505
49574477,510
49584490,510
49594533,509
49604576,511
49614589,509
49624630,506
49634670,512
49644684,507
49654728,509
49664770,507
49674781,506
49684825,506
49694868,512
49704910,513
49714923,511
49724969,508
49735017,508
49745033,507
49755079,509
49765124,505
49775139,503
49785181,501
49795223,506
49805237,511
49815279,504
49825323,508
49835337,510
49845383,505
49855429,508
49865443,507
49875485,509
49885528,501
49895543,505
49905589,508
49915633,507
49925644,505
49935687,508
49945729,508
49955772,504
49965787,508
49975828,504
49985868,510
49995881,511
50005925,503
50015966,509
50025978,507
50036018,503
50046061,506
50056075,512
50066118,508
50076161,511
50086173,512
50096219,513
50106258,516
50116269,513
50126307,519
50136346,523
50146357,522
50156404,516
50166448,521
50176459,520
50186499,517
50196542,510
50206581,511
50216591,509
50226633,514
50236684,506
50246704,512
50256753,509
50266802,513
50276819,507
50286868,508
50296916,507
50306930,508
50316970,505
50327019,510
50337035,510
50347084,510
50357131,509
50367148,506
50377194,511
50387236,502
50397249,512
50407292,503
50417334,507
50427350,504
50437397,502
50447441,505
50457485,507
50467498,507
50477544,509
50487591,503
50497606,508
50507650,503
50517695,502
50527709,501
50537750,505
50547791,504
50557801,503
50567842,510
50577881,506
50587896,509
50597937,508
50607979,507
50617991,504
50628034,505
50638077,507
50648093,507
50658136,501
50668178,505
50678192,506
50688236,507
50698279,506
50708322,501
50718334,508
50728375,502
50738421,508
50748437,507
50758483,510
50768529,508
50778542,507
50788586,510
50798630,508
50808644,506
50818690,513
50828733,510
50838748,513
50848792,516
50858836,521
50868851,522
50878896,523
50888937,522
50898948,515
50908994,522
50919036,517
50929049,520
50939094,516
50949136,514
50959176,517
50969185,515
50979226,515
50989268,514
50999280,506
51009322,508
51019362,514
51029370,510
51039406,504
51049442,509
51059447,506
51069486,508
51079526,510
51089534,511
51099573,511
51109616,510
51119633,512
51129678,510
51139721,504
51149735,507
51159783,506
51169829,508
51179846,510
51189891,509
51199939,505
51209986,506
51220004,507
51230042,508
51240084,506
51250096,506
51260136,508
51270176,508
51280186,507
51290223,506
51300260,501
51310265,510
51320303,507
51330343,500
51340353,504
51350393,509
51360431,508
51370442,506
51380484,501
51390528,504
51400540,507
51410584,505
51420623,505
51430633,509
51440674,508
51450716,501
51460760,508
51470773,511
51480814,507
51490851,510
51500863,507
51510908,509
51520953,510
51530968,508
51541013,510
51551059,506
51561074,506
51571116,504
51581159,510
51591171,510
51601215,516
51611258,511
51621271,518
51631311,513
51641353,522
51651367,520
51661408,521
51671448,518
51681457,518
51691500,510
51701546,517
51711590,516
51721603,516
51731648,514
51741692,512
51751703,509
51761746,513
51771788,510
51781801,511
51791842,509
51801887,509
51811902,502
51821946,508
51831987,508
51841997,501
51852038,506
51862080,510
51872091,506
51882130,504
51892169,508
51902176,509
51912215,508
51922257,512
51932268,507
51942310,505
51952355,505
51962393,504
51972405,507
51982447,507
51992484,510
52002490,509
52012529,508
52022565,506
52032570,504
52042608,503
52052641,505
52062643,508
52072679,508
52082720,501
52092733,507
52102770,509
52112812,508
52122821,508
52132856,507
52142894,506
52152906,508
52162944,508
52172980,508
52182986,510
52193020,507
52203051,505
52213085,506
52223093,504
52233132,505
52243171,503
52253181,508
52263226,507
52273263,504
52283271,503
52293312,505
52303352,506
52313361,501
52323398,506
52333433,506
52343442,503
52353482,508
52363522,506
52373526,512
52383566,509
52393605,510
52403611,516
52413650,516
52423688,511
52433696,514
52443736,511
52453776,515
52463817,515
52473824,507
52483861,516
52493900,513
52503908,511
52513949,506
52523989,512
52534000,509
52544041,509
52554082,502
52564090,510
52574129,504
52584169,503
52594179,508
52604216,502
52614255,504
52624261,509
52634297,508
52644334,504
52654340,507
52664378,507
52674420,511
52684429,509
52694468,508
52704508,510
52714545,507
52724553,503
52734593,511
52744631,509
52754638,509
52764674,504
52774714,508
52784725,503
52794763,510
52804802,505
52814811,509
52824851,502
52834893,506
52844900,507
52854937,500
52864978,501
52874988,502
52885035,506
52895082,509
52905100,506
52915141,506
52925184,502
52935195,511
52945234,510
52955281,511
52965331,505
52975346,510
52985387,509
52995430,508
53005445,502
53015489,508
53025533,506
53035544,508
53045588,511
53055632,510
53065647,507
53075689,504
53085731,507
53095743,510
53105784,509
53115825,503
53125837,509
53135881,510
53145925,510
53155938,509
53165981,506
53176023,514
53186036,516
53196079,516
53206120,512
53216162,519
53226172,515
53236216,513
53246257,515
53256268,518
53266312,512
53276363,515
53286382,514
53296431,513
53306478,507
53316495,509
53326540,505
53336581,512
53346595,507
53356638,506
53366680,508
53376691,503
53386732,511
53396773,510
53406784,506
53416824,510
53426866,511
53436876,510
53446917,508
53456955,505
53466993,510
53477007,508
53487050,506
53497092,509
53507104,507
53517147,508
53527191,502
53537202,509
53547243,510
53557285,502
53567296,504
53577338,509
53587376,508
53597388,510
53607431,504
53617474,508
53627488,508
53637533,511
53647574,505
53657587,510
53667631,501
53677674,507
53687685,508
53697726,506
53707766,510
53717808,502
53727819,508
53737859,511
53747896,510
53757902,504
53767940,508
53777982,508
53787991,506
53798030,509
53808072,506
53818082,507
53828125,505
53838169,502
53848184,506
53858227,503
53868267,506
53878281,506
53888322,502
53898361,507
53908370,503
53918411,508
53928449,510
53938458,511
53948497,513
53958537,512
53968577,512
53978588,510
53988624,514
53998660,508
54008666,516
54018707,510
54028748,509
54038756,518
54048795,514
54058834,517
54068842,517
54078881,513
54088920,511
54098931,508
54108971,512
54119013,511
54129023,511
54139066,510
54149106,508
54159120,504
54169165,510
54179209,511
54189223,504
54199266,509
54209309,512
54219358,507
54229380,507
54239429,511
54249476,505
54259494,507
54269542,505
54279590,510
54289605,509
54299649,509
54309688,509
54319698,506
54329741,512
54339783,502
54349795,509
54359836,506
54369875,502
54379885,507
54389924,507
54399964,505
54409974,507
54420013,507
54430055,501
54440065,506
54450105,510
54460145,502
54470180,507
54480187,509
54490230,510
54500274,508
54510285,508
54520328,505
54530370,510
54540382,504
54550425,509
54560467,504
54570476,508
54580512,509
54590547,506
54600554,508
54610594,509
54620633,510
54630640,505
54640681,504
54650724,507
54660732,508
54670771,509
54680810,503
54690817,507
54700856,509
54710896,507
54720935,505
54730944,511
54740980,510
54751016,509
54761023,511
54771060,513
54781093,508
54791100,513
54801144,510
54811185,517
54821196,513
54831236,519
54841277,513
54851283,518
54861323,516
54871365,517
54881374,513
54891414,511
54901453,512
54911463,508
54921497,513
54931530,513
54941534,510
54951568,512
54961602,510
54971638,510
54981646,511
54991685,509
55001723,509
55011731,511
55021768,506
55031803,506
55041801,510
55051832,511
55061866,511
55071876,509
55081915,512
55091954,506
55101958,506
55111993,511
55122029,512
55132032,510
55142070,504
55152106,510
55162113,512
55172147,506
55182183,510
55192190,508
55202228,510
55212263,502
55222298,510
55232306,507
55242340,506
55252377,502
55262387,508
55272430,504
55282470,504
55292483,508
55302524,509
55312566,511
55322577,510
55332620,507
55342659,512
55352672,510
55362714,510
55372757,510
55382766,510
55392803,510
55402840,505
55412849,507
55422888,505
55432928,509
55442936,510
55452970,509
55463007,504
55473045,508
55483054,508
55493093,501
55503130,510
55513138,505
55523178,506
55533216,508
55543225,508
55553265,509
55563305,510
55573311,503
55583344,509
55593380,503
55603385,503
55613418,512
55623451,514
55633454,512
55643495,518
55653533,512
55663542,520
55673580,521
55683617,514
55693621,518
55703655,518
55713690,514
55723729,512
55733737,515
55743773,514
55753810,509
55763819,509
55773856,507
55783894,510
55793901,511
55803937,510
55813972,503
55823977,508
55834015,505
55844051,510
55854058,508
55864094,510
55874130,507
55884136,510
55894173,510
55904214,511
55914222,509
55924261,509
55934302,511
55944312,511
55954350,504
55964392,512
55974435,510
55984447,506
55994485,509
56004519,510
56014528,510
56024569,511
56034611,506
56044620,504
56054660,509
56064700,503
56074710,509
56084749,506
56094791,507
56104802,503
56114845,505
56124887,508
56134894,505
56144934,511
56154976,509
56164985,503
56175028,506
56185076,510
56195090,506
56205137,508
56215182,511
56225223,510
56235232,512
56245270,502
56255309,502
56265321,505
56275364,508
56285412,509
56295431,503
56305475,510
56315519,508
56325531,507
56335574,511
56345617,509
56355631,507
56365674,509
56375713,513
56385723,508
56395763,515
56405803,515
56415816,517
56425860,514
56435902,517
56445912,518
56455950,519
56465991,516
56476035,517
56486046,517
56496083,514
56506120,510
56516131,515
56526171,513
56536207,513
56546215,510
56556252,512
56566288,510
56576295,502
56586335,504
56596372,511
56606378,506
56616417,506
56626457,510
56636466,509
56646506,509
56656544,504
56666554,511
56676592,506
56686631,512
56696637,510
56706673,509
56716711,513
56726748,510
56736757,506
56746797,507
56756831,508
56766835,511
56776873,504
56786913,512
56796925,503
56806963,507
56817003,509
56827012,506
56837050,506
56847091,510
56857102,512
56867145,503
56877182,504
56887187,509
56897227,502
56907263,511
56917272,502
56927311,508
56937350,508
56947360,510
56957398,504
56967437,509
56977475,512
56987481,504
56997522,511
57007561,506
57017572,506
57027611,505
57037650,506
57047655,507
57057687,505
57067724,506
57077730,509
57087768,513
57097808,512
57107818,514
57117852,515
57127891,512
57137898,516
57147935,512
57157970,520
57167975,516
57178011,520
57188048,521
57198053,513
57208093,514
57218127,514
57228163,512
57238169,507
57248203,511
57258236,512
57268238,514
57278276,511
57288317,509
57298325,507
57308361,510
57318399,508
57328410,501
57338453,506
57348493,506
57358500,506
57368538,503
57378574,508
57388581,509
57398620,509
57408658,504
57418669,509
57428708,506
57438748,511
57448757,512
57458794,511
57468830,503
57478866,508
57488872,510
57498909,508
57508946,510
57518952,509
57528991,503
57539030,508
57549037,509
57559079,503
57569120,508
57579130,509
57589169,501
57599207,508
57609215,508
57619258,508
57629302,507
57639315,507
57649357,509
57659398,507
57669410,505
57679453,511
57689493,507
57699505,508
57709550,511
57719594,510
57729636,510
57739647,507
57749691,510
57759734,512
57769746,510
57779790,512
57789834,513
57799847,516
57809890,521
57819935,521
57829945,519
57839986,518
57850029,522
57860041,523
57870082,526
57880125,517
57890132,517
57900176,522
57910220,519
57920231,525
57930271,517
57940311,522
57950321,512
57960364,515
57970406,513
57980442,514
57990446,518
58000482,517
58010522,515
58020526,512
58030566,516
58040607,509
58050616,508
58060657,512
58070698,508
58080711,511
58090754,517
58100795,514
58110802,513
58120843,513
58130886,515
58140902,516
58150948,513
58161000,510
58171022,513
58181070,507
58191111,510
58201122,513
58211164,512
58221207,507
58231250,504
58241261,508
58251301,512
58261343,513
58271355,511
58281402,512
58291448,511
58301462,514
58311505,514
58321549,511
58331560,509
58341603,506
58351645,504
58361656,512
58371697,510
58381737,512
58391745,509
58401785,506
58411825,503
58421834,506
58431875,509
58441915,507
58451924,516
58461963,519
58472003,514
58482043,525
58492050,520
58502089,530
58512127,533
58522135,529
58532183,536
58542233,535
58552250,532
58562299,533
58572346,526
58582362,530
58592409,521
58602454,522
58612467,524
58622506,516
58632543,515
58642550,518
58652592,516
58662633,509
58672645,510
58682683,511
58692723,505
58702729,501
58712767,506
58722802,506
58732836,506
58742841,507
58752876,507
58762913,507
58772919,504
58782956,506
58792991,502
58802996,507
58813030,511
58823060,510
58833063,510
58843099,505
58853138,510
58863143,507
58873181,505
58883216,508
58893225,502
58903265,511
58913306,508
58923317,503
58933357,504
58943398,500
58953407,506
58963449,499
58973487,503
58983528,503
58993534,508
59003570,500
59013604,503
59023608,503
59033644,504
59043679,499
59053686,507
59063725,507
59073765,503
59083773,507
59093810,503
59103847,502
59113853,506
59123888,501
59133925,509
59143932,502
59153972,508
59164011,508
59174015,507
59184053,502
59194089,511
59204095,519
59214134,520
59224171,522
59234207,525
59244211,529
59254243,531
59264279,537
59274284,537
59284321,534
59294356,535
59304362,534
59314399,524
59324433,522
59334439,524
59344478,518
59354516,519
59364525,516
59374565,516
59384601,513
59394605,503
59404639,505
59414675,505
59424682,503
59434721,503
59444760,503
59454763,503
59464798,500
59474835,504
59484873,504
59494879,499
59504916,505
59514949,508
59524954,504
59534991,504
59545031,510
59555040,503
59565079,504
59575118,501
59585126,507
59595165,502
59605204,502
59615211,503
59625247,505
59635286,506
59645296,508
59655337,500
59665377,506
59675385,497
59685422,504
59695460,506
59705470,501
59715510,506
59725551,503
59735592,508
59745604,508
59755644,508
59765683,503
59775694,503
59785735,507
59795776,500
59805785,502
59815824,502
59825864,501
59835874,506
59845914,507
59855953,506
59865963,508
59876005,508
59886047,501
59896056,508
59906096,509
59916136,506
59926145,509
59936185,507
59946224,507
59956227,500
59966265,499
59976304,508
59986343,506
59996352,503
60006389,506
60016426,512
60026431,512
60036467,510
60046508,522
60056521,524
60066564,527
60076607,527
60086619,523
60096659,531
60106700,527
60116712,529
60126754,523
60136793,523
60146799,520
60156840,525
60166881,514
60176892,514
60186934,515
60196973,508
60206981,507
60217021,507
60227059,504
60237097,505
60247105,504
60257146,506
60267189,501
60277202,502
60287246,502
60297289,508
60307300,505
60317338,501
60327376,502
60337383,508
60347422,502
60357460,507
60367467,506
60377503,507
60387542,505
60397546,506
60407585,508
60417622,509
60427624,508
60437659,502
60447693,506
60457696,509
60467729,511
60477764,508
60487802,507
60497808,509
60507842,501
60517879,502
60527884,507
60537923,504
60547963,502
60557971,507
60568005,507
60578040,508
60588042,501
60598076,507
60608111,507
60618116,499
60628153,506
60638189,502
60648196,505
60658234,500
60668270,505
60678276,507
60688316,506
60698355,504
60708364,503
60718400,501
60728434,505
60738470,506
60748477,505
60758515,501
60768552,510
60778562,508
60788597,507
60798634,500
60808643,511
60818684,510
60828726,513
60838736,507
60848777,518
60858819,520
60868828,521
60878869,521
60888907,527
60898914,526
60908953,528
60918990,527
60928996,529
60939030,527
60949062,519
60959066,519
60969099,522
60979136,516
60989170,516
60999172,513
61009204,512
61019235,511
61029239,510
61039274,503
61049306,501
61059304,504
61069335,501
61079370,508
61089374,506
61099410,508
61109445,504
61119448,507
61129481,503
61139514,506
61149519,509
61159553,507
61169587,503
61179590,500
61189622,506
61199654,505
61209655,505
61219684,505
61229711,508
61239734,507
61249727,508
61259757,506
61269788,507
61279786,509
61289817,501
61299850,503
61309851,501
61319879,506
61329912,507
61339914,506
61349952,504
61359990,497
61369996,503
61380035,499
61390070,508
61400074,505
61410111,503
61420145,501
61430151,507
61440188,502
61450225,507
61460229,506
61470260,508
61480293,508
61490327,502
61500331,501
61510366,506
61520405,507
61530414,502
61540452,509
61550490,510
61560496,503
61570531,508
61580571,508
61590580,502
61600621,507
61610656,508
61620656,505
61630689,508
61640724,509
61650724,506
61660759,512
61670792,515
61680794,518
61690829,522
61700860,517
61710863,527
61720900,523
61730934,531
61740966,532
61750968,531
61761006,521
61771046,528
61781053,525
61791090,522
61801130,515
61811139,519
61821178,515
61831217,510
61841223,509
61851264,508
61861305,508
61871313,506
61881351,506
61891385,499
61901396,502
61911437,507
61921479,502
61931487,505
61941527,501
61951561,508
61961568,503
61971607,506
61981643,505
61991683,508
62001694,506
62011736,511
62021775,507
62031784,507
62041821,501
62051862,506
62061873,502
62071913,507
62081952,502
62091962,501
62102005,505
62112047,499
62122055,507
62132092,502
62142132,503
62152144,506
62162184,500
62172225,508
62182233,502
62192272,503
62202311,501
62212320,506
62222359,504
62232399,503
62242438,501
62252445,504
62262482,501
62272518,504
62282525,505
62292561,501
62302598,504
62312605,503
62322644,503
62332687,506
62342699,504
62352737,500
62362774,505
62372783,501
62382825,501
62392867,502
62402877,506
62412917,504
62422957,508
62432968,507
62443008,507
62453049,506
62463059,506
62473103,508
62483144,506
62493184,501
62503196,502
62513236,508
62523272,510
62533279,508
62543319,507
62553357,507
62563370,506
62573407,516
62583443,515
62593453,520
62603495,516
62613536,512
62623544,512
62633580,515
62643616,512
62653621,512
62663660,515
62673700,517
62683708,510
62693747,512
62703787,508
62713795,511
62723831,512
62733867,511
62743907,510
62753918,507
62763956,510
62773995,507
62784000,500
62794036,503
62804075,512
62814084,505
62824125,510
62834163,503
62844172,508
62854212,504
62864251,507
62874259,506
62884297,508
62894332,506
62904336,509
62914373,508
62924410,507
62934418,507
62944455,501
62954496,506
62964499,504
62974531,510
62984568,508
62994603,508
63004610,509
63014651,502
63024691,509
63034704,508
63044748,510
63054793,501
63064804,507
63074843,505
63084882,509
63094891,508
63104929,508
63114969,509
63124982,510
63135021,506
63145061,508
63155070,506
63165109,505
63175149,503
63185156,510
63195191,510
63205230,507
63215239,504
63225279,507
63235319,511
63245359,509
63255370,509
63265414,510
63275459,508
63285473,506
63295520,509
63305563,507
63315573,504
63325612,513
63335654,514
63345663,516
63355703,515
63365742,512
63375752,510
63385790,511
63395828,519
63405834,515
63415872,511
63425911,514
63435920,512
63445960,511
63455998,513
63466003,512
63476039,505
63486079,511
63496117,506
63506126,502
63516164,508
63526201,503
63536211,509
63546250,505
63556289,506
63566298,505
63576338,509
63586378,505
63596386,505
63606425,511
63616463,507
63626472,510
63636514,508
63646547,507
63656550,503
63666585,502
63676618,508
63686624,509
63696659,511
63706697,509
63716705,505
63726742,509
63736779,508
63746816,506
63756825,507
63766866,505
63776903,507
63786911,508
63796950,509
63806988,511
63816995,509
63827032,508
63837069,507
63847076,508
63857113,506
63867151,506
63877158,509
63887193,506
63897234,508
63907244,510
63917283,508
63927324,509
63937333,506
63947376,506
63957418,507
63967428,507
63977468,510
63987504,501
63997542,509
64007548,504
64017587,504
64027627,508
64037637,509
64047678,509
64057717,512
64067727,515
64077764,510
64087806,518
64097816,517
64107855,520
64117895,515
64127905,517
64137945,513
64147985,520
64157994,519
64168034,517
64178074,514
64188087,520
64198132,514
64208177,511
64218190,515
64228233,517
64238280,512
64248327,513
64258340,513
64268385,509
64278431,513
64288443,506
64298482,504
64308525,511
64318538,510
64328580,508
64338622,510
64348634,508
64358677,503
64368721,506
64378732,512
64388773,502
64398816,509
64408824,509
64418865,512
64428910,504
64438924,512
64448966,505
64459009,510
64469024,504
64479066,507
64489110,506
64499150,508
64509155,503
64519195,511
64529233,506
64539243,511
64549283,511
64559327,510
64569336,503
64579379,509
64589422,509
64599434,508
64609474,511
64619513,505
64629523,509
64639564,509
64649605,501
64659615,510
64669653,508
64679691,505
64689701,506
64699743,508
64709787,509
64719801,508
64729844,510
64739888,508
64749934,505
64759951,508
64769996,508
64780039,511
64790052,506
64800101,507
64810146,508
64820162,512
64830205,514
64840248,512
64850265,518
64860311,518
64870353,524
64880365,525
64890408,525
64900445,522
64910455,528
64920494,523
64930533,528
64940545,518
64950587,525
64960631,520
64970645,523
64980690,517
64990731,520
65000775,519
65010788,518
65020830,516
65030871,511
65040885,511
65050928,511
65060969,507
65070979,509
65081021,510
65091061,505
65101071,509
65111109,510
65121147,513
65131155,510
65141194,512
65151236,508
65161247,512
65171288,512
65181330,512
65191342,511
65201382,506
65211421,510
65221433,507
65231474,510
65241517,503
65251553,504
65261563,507
65271605,506
65281645,505
65291657,507
65301700,511
65311741,508
65321754,508
65331796,503
65341839,505
65351850,510
65361891,504
65371935,510
65381948,504
65391989,502
65402031,504
65412043,507
65422083,508
65432120,504
65442132,507
65452174,507
65462217,505
65472227,504
65482267,509
65492311,507
65502353,510
65512367,502
65522412,506
65532455,504
65542467,509
65552511,507
65562556,501
65572568,506
65582610,510
65592650,510
65602665,506
65612706,502
65622748,504
65632759,504
65642800,508
65652841,508
65662847,509
65672882,517
65682918,525
65692928,523
65702969,519
65713011,519
65723021,528
65733062,530
65743101,527
65753141,529
65763149,526
65773191,526
65783232,515
65793240,523
65803278,519
65813317,511
65823326,516
65833367,510
65843407,511
65853417,511
65863460,505
65873503,505
65883519,509
65893566,509
65903611,510
65913624,508
65923675,505
65933716,504
65943726,510
65953765,510
65963804,508
65973816,504
65983859,510
65993902,510
66003942,510
66013952,508
66023989,506
66034026,510
66044035,509
66054073,506
66064109,507
66074117,508
66084157,501
66094194,506
66104203,506
66114243,505
66124284,502
66134293,507
66144335,508
66154375,506
66164385,505
66174426,509
66184468,504
66194480,503
66204521,504
66214562,503
66224572,504
66234612,504
66244651,500
66254692,506
66264704,500
66274746,507
66284787,504
66294798,508
66304840,506
66314887,502
66324902,500
66334948,506
66344992,504
66355004,505
66365044,506
66375087,508
66385100,509
66395144,499
66405188,501
66415198,508
66425239,506
66435280,503
66445290,510
66455331,502
66465370,511
66475378,511
66485419,516
66495460,516
66505501,515
66515510,521
66525551,525
66535593,522
66545608,530
66555653,528
66565694,529
66575706,525
66585747,518
66595787,517
66605797,520
66615836,519
66625874,509
66635883,515
66645921,509
66655960,507
66665969,508
66676009,509
66686052,508
66696061,505
66706103,506
66716144,507
66726154,506
66736194,503
66746233,510
66756273,507
66766284,507
66776327,510
66786367,501
66796376,512
66806417,509
66816462,505
66826476,509
66836515,503
66846555,503
66856564,512
66866602,503
66876639,501
66886647,501
66896691,509
66906731,502
66916739,505
66926777,504
66936819,506
66946829,510
66956869,504
66966911,506
66976923,509
66986962,503
66997003,506
67007043,508
67017053,506
67027095,505
67037135,504
67047141,507
67057179,499
67067218,506
67077229,506
67087265,508
67097299,503
67107306,508
67117341,507
67127379,501
67137385,510
67147419,501
67157458,507
67167467,500
67177507,501
67187549,500
67197561,501
67207600,505
67217640,504
67227648,508
67237692,508
67247736,500
67257779,505
67267791,507
67277834,503
67287874,508
67297886,507
67307925,512
67317963,509
67327975,514
67338015,518
67348056,521
67358064,523
67368101,526
67378137,523
67388142,523
67398178,528
67408213,529
67418224,528
67428261,522
67438299,524
67448307,516
67458344,521
67468381,514
67478390,520
67488430,513
67498468,511
67508509,512
67518518,513
67528556,511
67538593,512
67548600,507
67558640,508
67568679,507
67578688,507
67588732,510
67598772,502
67608780,512
67618821,501
67628860,511
67638865,508
67648902,504
67658940,510
67668948,503
67678985,508
67689024,510
67699032,504
67709074,509
67719114,507
67729124,502
67739166,510
67749209,504
67759253,507
67769267,502
67779311,506
67789355,503
67799370,507
67809417,507
67819460,507
67829471,505
67839513,507
67849554,505
67859567,508
67869607,507
67879648,508
67889659,503
67899701,502
67909742,502
67919753,506
67929795,507
67939838,500
67949854,507
67959900,507
67969947,499
67979963,504
67990012,510
68000059,508
68010104,509
68020120,503
68030164,506
68040211,506
68050226,503
68060271,508
68070316,510
68080330,504
68090371,503
68100413,509
68110424,507
68120468,509
68130511,511
68140519,514
68150559,513
68160601,522
68170612,526
68180655,520
68190696,530
68200713,530
68210758,532
68220805,525
68230820,531
68240864,528
68250908,527
68260955,526
68270970,517
68281015,519
68291061,519
68301072,515
68311116,515
68321161,512
68331177,509
68341219,511
68351262,508
68361277,501
68371324,510
68381365,505
68391379,500
68401427,508
68411474,508
68421485,507
68431527,502
68441565,505
68451574,507
68461612,510
68471652,506
68481664,510
68491707,511
68501752,507
68511797,508
68521809,507
68531849,505
68541889,506
68551899,508
68561939,509
68571980,505
68581988,501
68592028,506
68602067,510
68612075,506
68622116,502
68632159,510
68642168,501
68652209,505
68662253,505
68672268,506
68682311,505
68692355,505
68702370,504
68712417,505
68722462,506
68732478,502
68742521,510
68752563,504
68762607,509
68772619,503
68782663,503
68792706,504
68802717,504
68812764,508
68822807,509
68832820,503
68842863,506
68852905,503
68862915,507
68872958,508
68883000,502
68893009,504
68903050,506
68913091,509
68923102,507
68933142,502
68943179,505
68953189,503
68963230,509
68973272,508
68983283,506
68993326,512
69003368,513
69013411,518
69023424,523
69033467,517
69043509,529
69053520,533
69063562,532
69073606,536
69083618,534
69093658,535
69103697,534
69113708,530
69123749,528
69133794,526
69143809,522
69153848,523
69163891,517
69173907,522
69183952,516
69193993,515
69204005,510
69214049,512
69224091,503
69234101,506
69244142,504
69254184,499
69264224,502
69274234,499
69284271,503
69294309,505
69304316,506
69314359,506
69324404,504
69334416,502
69344461,508
69354500,508
69364512,504
69374556,504
69384599,508
69394615,506
69404660,506
69414705,506
69424717,503
69434760,499
69444801,505
69454813,503
69464857,505
69474902,501
69484914,506
69494958,499
69505001,508
69515045,504
69525060,505
69535106,505
69545150,508
69555166,505
69565208,499
69575252,508
69585270,505
69595315,505
69605358,507
69615371,505
69625415,501
69635459,504
69645473,508
69655516,500
69665559,510
69675571,498
69685611,508
69695654,505
69705665,502
69715710,502
69725752,503
69735763,502
69745802,502
69755842,506
69765882,505
69775892,507
69785935,498
69795978,504
69805990,507
69816032,499
69826074,498
69836087,507
69846132,501
69856178,499
69866189,501
69876229,508
69886267,510
69896275,508
69906314,507
69916355,506
69926365,517
69936404,515
69946443,522
69956454,519
69966499,529
69976542,528
69986555,529
69996601,522
70006648,528
70016691,520
70026705,519
70036750,525
70046795,524
70056810,521
70066853,520
70076897,517
70086908,514
70096949,508
70106992,515
70117003,505
70127044,502
70137083,508
70147091,507
70157132,507
70167172,506
70177182,506
70187222,504
70197262,507
70207275,506
70217319,504
70227359,499
70237370,506
70247413,507
70257448,506
70267484,505
70277491,507
70287530,505
70297570,501
70307580,507
70317621,507
70327659,507
70337668,502
70347710,500
70357751,504
70367763,505
70377804,501
70387844,507
70397851,505
70407888,501
70417927,506
70427936,508
70437977,499
70448019,506
70458033,507
70468077,504
70478119,508
70488130,508
70498173,505
70508214,506
70518258,502
70528266,503
70538305,508
70548349,506
70558359,503
70568400,508
70578442,505
70588454,508
70598494,507
70608537,507
70618549,506
70628593,500
70638638,508
70648652,505
70658693,506
70668736,505
70678751,509
70688794,501
70698837,501
70708848,505
70718889,501
70728932,508
70738944,498
70748985,507
70759025,506
70769064,501
70779075,509
70789120,504
70799165,508
70809178,511
70819221,513
70829265,511
70839278,514
70849321,517
70859363,522
70869375,523
70879416,519
70889461,522
70899473,524
70909512,520
70919551,519
70929564,522
70939608,524
70949651,517
70959664,518
70969703,520
70979740,513
70989748,512
70999786,515
71009826,514
71019865,507
71029874,510
71039909,508
71049947,508
71059958,505
71069999,507
71080040,501
71090047,506
71100086,500
71110127,501
71120134,507
71130175,504
71140215,509
71150226,504
71160267,510
71170308,506
71180317,501
71190357,502
71200398,500
71210408,508
71220450,509
71230493,508
71240506,510
71250547,506
71260588,507
71270630,505
71280641,506
71290682,503
71300715,503
71310722,503
71320760,500
71330801,503
71340809,509
71350850,507
71360891,504
71370901,503
71380940,505
71390982,504
71400994,508
71411034,504
71421072,506
71431081,510
71441121,504
71451164,510
71461170,508
71471211,506
71481255,507
71491266,506
71501309,506
71511354,505
71521399,501
71531413,509
71541454,502
71551500,506
71561516,507
71571563,504
71581608,502
71591621,511
71601666,507
71611708,506
71621719,505
71631758,506
71641798,505
71651809,508
71661851,500
71671892,507
71681905,506
71691946,504
71701988,504
71711998,505
71722035,501
71732073,508
71742084,512
71752125,512
71762166,510
71772207,511
71782215,515
71792253,518
71802291,520
71812299,512
71822339,520
71832382,515
71842391,511
71852429,512
71862467,517
71872473,515
71882508,514
71892544,512
71902557,512
71912598,510
71922637,506
71932645,512
71942684,510
71952722,508
71962731,509
71972766,510
71982800,506
71992802,509
72002839,506
72012876,506
72022914,502
72032920,509
72042957,504
72052995,505
72063003,512
72073041,505
72083079,509
72093088,506
72103127,503
72113166,506
72123173,505
72133214,508
72143252,506
72153259,509
72163296,508
72173334,501
72183338,508
72193377,507
72203417,509
72213427,505
72223465,504
72233500,505
72243507,501
72253544,503
72263584,504
72273620,503
72283628,507
72293664,509
72303701,503
72313706,506
72323745,504
72333783,504
72343788,503
72353828,502
72363866,504
72373876,508
72383915,501
72393956,501
72403964,503
72414001,508
72424039,508
72434045,501
72444081,510
72454117,502
72464127,505
72474167,507
72484206,507
72494216,501
72504257,505
72514296,502
72524338,502
72534350,509
72544393,506
72554435,506
72564442,506
72574483,507
72584521,502
72594529,505
72604570,510
72614611,507
72624620,507
72634660,505
72644700,512
72654709,510
72664747,509
72674785,516
72684794,517
72694834,516
72704873,513
72714882,521
72724920,516
72734958,518
72744968,519
72755005,523
72765043,518
72775081,519
72785087,517
72795122,516
72805158,512
72815159,513
72825197,513
72835235,507
72845243,511
72855280,512
72865312,505
72875318,510
72885362,509
72895408,506
72905423,507
72915469,508
72925515,501
72935531,509
72945574,507
72955613,506
72965621,505
72975661,508
72985700,505
72995707,508
73005747,510
73015783,508
73025822,509
73035831,511
73045867,507
73055903,503
73065910,507
73075947,506
73085982,507
73095988,507
73106023,499
73116060,506
73126067,501
73136103,508
73146139,508
73156149,507
73166187,507
73176224,506
73186228,509
73196264,508
73206300,501
73216305,504
73226343,506
73236379,502
73246385,508
73256421,508
73266455,507
73276488,502
73286490,505
73296526,500
73306562,509
73316567,502
73326602,509
73336635,507
73346638,503
73356671,499
73366704,505
73376708,504
73386741,510
73396773,507
73406777,507
73416815,503
73426849,500
73436853,507
73446887,505
73456923,507
73466926,507
73476962,508
73486996,505
73496998,509
73507033,505
73517070,509
73527106,509
73537113,505
73547148,508
73557179,505
73567179,510
73577215,509
73587252,513
73597257,513
73607296,509
73617332,510
73627341,513
73637380,510
73647420,518
73657431,512
73667474,514
73677516,516
73687529,515
73697575,514
73707618,506
73717631,514
73727675,507
73737722,507
73747735,512
73757778,512
73767821,508
73777862,510
73787876,501
73797921,508
73807965,506
73817982,506
73828030,508
73838076,503
73848091,503
73858134,510
73868180,502
73878197,510
73888244,509
73898289,507
73908298,506
73918338,508
73928379,505
73938393,510
73948434,509
73958473,506
73968484,509
73978526,501
73988566,509
73998580,503
74008622,501
74018662,508
74028706,504
74038720,509
74048762,508
74058804,510
74068817,503
74078859,510
74088904,508
74098916,508
74108962,506
74119003,506
74129016,507
74139058,509
74149099,502
74159111,508
74169152,503
74179190,507
74189196,510
74199234,501
74209270,507
74219275,505
74229314,504
74239357,509
74249370,507
74259418,505
74269463,508
74279505,511
74289516,510
74299556,508
74309601,503
74319616,505
74329658,507
74339702,502
74349711,509
74359750,508
74369791,509
74379802,508
74389844,503
74399885,506
74409894,509
74419937,512
74429981,512
74439992,509
74450034,507
74460077,511
74470088,516
74480131,509
74490175,516
74500188,517
74510229,518
74520268,516
74530309,518
74540319,512
74550360,510
74560402,515
74570412,516
74580453,511
74590489,514
74600492,515
74610531,512
74620569,513
74630579,511
74640620,508
74650658,512
74660667,505
74670707,505
74680746,508
74690752,505
74700790,509
74710827,504
74720835,508
74730869,502
74740906,502
74750910,504
74760951,511
74770990,503
74781037,509
74791052,503
74801097,510
74811141,507
74821158,502
74831202,511
74841242,505
74851250,508
74861291,507
74871328,509
74881336,510
74891374,502
74901417,509
74911430,510
74921471,501
74931509,503
74941517,500
74951558,510
74961599,508
74971607,508
74981649,511
74991690,512
75001699,506
75011737,508
75021773,501
75031812,508
75041820,508
75051858,510
75061899,511
75071909,506
75081951,508
75091989,510
75102000,511
75112040,511
75122082,506
75132093,508
75142134,507
75152176,508
75162182,505
75172219,510
75182258,512
75192266,511
75202303,501
75212345,507
75222354,511
75232395,510
75242436,503
75252445,510
75262484,510
75272523,512
75282562,512
75292572,508
75302612,508
75312651,507
75322659,516
75332696,514
75342733,515
75352740,514
75362777,517
75372817,519
75382827,511
75392867,512
75402906,515
75412915,512
75422954,513
75432990,512
75442994,517
75453034,506
75463073,512
75473080,512
75483122,507
75493164,512
75503178,512
75513215,511
75523252,509
75533291,510
75543302,510
75553342,503
75563383,507
75573392,503
75583431,506
75593474,507
75603486,510
75613527,512
75623567,509
75633574,508
75643616,503
75653662,509
75663671,507
75673711,510
75683749,506
75693760,504
75703800,507
75713840,511
75723850,508
75733889,510
75743928,510
75753933,511
75763971,507
75774010,506
75784048,506
75794057,505
75804097,508
75814133,506
75824143,509
75834185,511
75844225,508
75854236,509
75864275,506
75874313,511
75884320,505
75894360,509
75904400,502
75914411,510
75924452,511
75934489,506
75944500,510
75954542,509
75964580,507
75974589,508
75984622,509
75994660,506
76004665,512
76014705,507
76024746,507
76034787,507
76044799,511
76054847,509
76064890,509
76074899,504
76084943,509
76094987,505
76105001,505
76115045,508
76125089,512
76135100,505
76145141,512
76155182,514
76165192,514
76175232,512
76185270,516
76195278,514
76205319,518
76215363,512
76225376,515
76235420,518
76245461,519
76255471,513
76265509,515
76275552,515
76285596,515
76295608,511
76305650,515
76315694,517
76325707,505
76335750,509
76345793,510
76355803,511
76365845,511
76375887,512
76385902,505
76395945,507
76405988,512
76415999,504
76426044,510
76436088,507
76446100,511
76456142,504
76466184,511
76476198,512
76486240,507
76496283,510
76506294,509
76516335,507
76526373,508
76536412,506
76546421,508
76556457,501
76566497,509
76576505,508
76586543,509
76596583,507
76606597,509
76616642,510
76626684,507
76636693,508
76646734,508
76656774,509
76666784,507
76676823,505
76686860,507
76696869,501
76706912,505
76716954,506
76726967,508
76737011,508
76747055,509
76757070,505
76767116,506
76777161,508
76787206,504
76797219,504
76807263,508
76817307,511
76827318,509
76837360,511
76847402,504
76857414,511
76867454,503
76877498,507
76887510,510
76897553,509
76907596,501
76917607,511
76927650,509
76937692,504
76947704,507
76957746,511
76967786,514
76977797,514
76987839,513
76997882,509
77007893,518
77017934,517
77027974,512
77038016,520
77048030,517
77058072,522
77068113,514
77078121,511
77088159,517
77098199,518
77108208,515
77118249,516
77128290,516
77138298,512
77148340,507
77158380,514
77168392,504
77178435,512
77188477,511
77198487,511
77208529,511
77218569,509
77228576,509
77238615,508
77248654,511
77258660,509
77268698,506
77278737,512
77288777,508
77298788,508
77308827,510
77318866,502
77328880,510
77338922,511
77348963,501
77358973,507
77369014,510
77379053,510
77389060,510
77399097,503
77409135,509
77419142,508
77429181,506
77439219,506
77449226,503
77459266,510
77469304,502
77479311,503
77489353,508
77499394,511
77509403,507
77519441,507
77529479,508
77539516,510
77549522,507
77559560,502
77569598,504
77579606,509
77589643,506
77599681,510
77609689,510
77619725,508
77629761,510
77639770,504
77649807,507
77659845,510
77669850,510
77679888,509
77689924,509
77699930,506
77709967,509
77720004,506
77730011,506
77740048,504
77750084,507
77760094,504
77770139,508
77780185,510
77790230,506
77800241,505
77810276,510
77820313,505
77830320,511
77840358,511
77850395,507
77860401,510
77870436,514
77880472,511
77890481,516
77900517,511
77910547,517
77920550,519
77930585,516
77940622,516
77950628,519
77960661,512
77970697,513
77980702,518
77990739,509
78000774,517
78010779,513
78020812,507
78030848,515
78040882,513
78050889,509
78060924,512
78070960,512
78080963,507
78090996,503
78101027,509
78111032,509
78121069,511
78131102,511
78141101,506
78151132,507
78161167,509
78171170,503
78181207,503
78191244,503
78201251,510
78211285,503
78221320,511
78231325,505
78241359,506
78251393,506
78261400,508
78271437,503
78281474,510
78291508,508
78301512,505
78311548,508
78321584,502
78331587,509
78341623,508
78351659,506
78361665,504
78371702,506
78381734,505
78391734,510
78401766,508
78411796,511
78421801,506
78431834,513
78441865,507
78451868,502
78461904,507
78471942,511
78481950,506
78491988,512
78502026,507
78512035,504
78522072,508
78532110,509
78542146,505
78552152,510
78562193,511
78572229,507
78582237,508
78592274,508
78602312,510
78612319,505
78622357,505
78632393,508
78642398,507
78652438,510
78662475,505
78672481,501
78682518,507
78692556,508
78702562,506
78712600,511
78722637,501
78732642,504
78742681,512
78752720,505
78762727,508
78772764,516
78782799,515
78792837,511
78802846,518
78812886,519
78822923,517
78832930,517
78842967,517
78853002,517
78863006,518
78873044,514
78883085,517
78893095,516
78903137,515
78913177,509
78923186,514
78933223,507
78943259,514
78953263,512
78963300,509
78973338,512
78983343,504
78993376,508
79003411,507
79013414,506
79023449,506
79033484,511
79043516,503
79053522,512
79063558,509
79073594,506
79083596,502
79093630,501
79103670,503
79113679,511
79123721,508
79133756,507
79143761,503
79153798,508
79163838,508
79173842,506
79183877,507
79193913,508
79203918,510
79213954,504
79223992,506
79233998,508
79244031,508
79254067,505
79264071,504
79274107,503
79284143,505
79294178,507
79304185,510
79314222,507
79324259,510
79334266,510
79344302,503
79354337,505
79364345,510
79374385,511
79384422,510
79394431,507
79404469,510
79414507,512
79424516,504
79434554,510
79444590,509
79454595,509
79464627,507
79474665,503
79484670,504
79494706,508
79504740,507
79514745,504
79524782,511
79534818,512
79544856,509
79554864,514
79564904,514
79574943,515
79584948,511
79594985,519
79605018,514
79615025,519
79625063,520
79635102,517
79645112,523
79655151,513
79665190,519
79675197,520
79685232,520
79695267,513
79705270,512
79715306,516
79725344,513
79735351,507
79745391,510
79755432,510
79765440,509
79775476,508
79785512,507
79795549,505
79805553,502
79815591,508
79825626,508
79835632,513
79845668,507
79855706,507
79865715,507
79875755,503
79885792,512
79895800,510
79905839,502
79915881,509
79925891,510
79935933,503
79945974,506
79955986,504
79966028,504
79976070,501
79986080,506
79996120,504
80006158,509
80016168,506
80026209,503
80036257,508
80046304,508
80056322,500
80066371,507
80076418,498
80086437,501
80096484,506
80106535,508
80116550,507
80126589,508
80136627,507
80146635,505
80156673,507
80166711,504
80176721,502
80186759,504
80196798,505
80206804,509
80216838,509
80226875,510
80236879,507
80246913,507
80256949,505
80266951,506
80276985,506
80287022,510
80297060,509
80307067,512
80317107,507
80327147,504
80337157,509
80347193,508
80357235,507
80367247,508
80377286,506
80387327,510
80397337,511
80407380,511
80417420,506
80427433,511
80437474,512
80447514,510
80457526,513
80467566,514
80477610,515
80487620,514
80497658,510
80507697,515
80517704,509
80527744,508
80537787,514
80547828,507
80557840,510
80567884,509
80577927,512
80587938,510
80597977,506
80608017,510
80618029,509
80628069,503
80638108,510
80648119,507
80658160,512
80668202,512
80678216,512
80688257,504
80698298,511
80708307,507
80718347,509
80728385,511
80738389,511
80748426,505
80758461,512
80768468,513
80778502,512
80788540,509
80798579,510
80808586,510
80818626,513
80828669,509
80838680,512
80848723,512
80858765,514
80868776,513
80878815,516
80888858,514
80898869,515
80908910,517
80918946,515
80928953,520
80938994,518
80949033,516
80959038,516
80969073,517
80979111,517
80989122,518
80999163,514
81009204,514
81019213,515
81029252,509
81039291,509
81049331,512
81059346,511
81069389,514
81079431,513
81089440,510
81099477,513
81109514,512
81119526,512
81129568,510
81139608,512
81149618,520
81159658,515
81169695,525
81179705,521
81189745,529
81199786,532
81209796,531
81219836,533
81229879,533
81239888,531
81249928,530
81259971,529
81269982,532
81280024,527
81290065,526
81300106,523
81310114,524
81320155,519
81330196,518
81340206,515
81350244,518
81360277,510
81370279,513
81380317,510
81390358,510
81400362,513
81410398,509
81420433,512
81430436,508
81440471,510
81450506,512
81460511,514
81470546,507
81480581,513
81490585,509
81500622,513
81510664,510
81520671,510
81530708,502
81540746,508
81550785,508
81560791,507
81570830,500
81580870,500
81590877,507
81600914,506
81610951,507
81620960,509
81631002,506
81641046,507
81651054,508
81661095,505
81671131,507
81681138,507
81691175,505
81701213,502
81711223,502
81721263,502
81731300,509
81741308,501
81751350,505
81761390,505
81771397,507
81781434,507
81791475,505
81801517,507
81811530,504
81821572,508
81831612,508
81841621,501
81851664,505
81861705,509
81871717,502
81881756,504
81891795,514
81901803,512
81911841,512
81921881,517
81931892,520
81941930,521
81951968,518
81961975,518
81972015,516
81982055,518
81992066,518
82002102,518
82012145,518
82022157,511
82032200,510
82042242,509
82052288,511
82062302,506
82072347,502
82082389,504
82092400,503
82102440,498
82112480,506
82122494,506
82132535,506
82142574,507
82152582,508
82162619,504
82172656,501
82182659,508
82192699,508
82202736,507
82212745,503
82222781,501
82232820,507
82242828,510
82252865,506
82262905,506
82272916,510
82282960,505
82293005,506
82303050,500
82313060,506
82323102,507
82333146,504
82343156,509
82353197,502
82363237,508
82373246,507
82383284,506
82393323,504
82403334,502
82413375,502
82423414,504
82433424,510
82443464,505
82453503,507
82463512,505
82473554,506
82483594,505
82493603,500
82503646,503
82513688,504
82523701,508
82533739,506
82543773,506
82553810,499
82563820,507
82573861,498
82583903,504
82593916,499
82603957,508
82613998,511
82624010,509
82634050,513
82644089,516
82654101,516
82664144,516
82674186,515
82684200,518
82694244,514
82704286,518
82714299,513
82724343,514
82734387,518
82744397,509
82754439,512
82764481,518
82774491,515
82784534,508
82794575,508
82804614,508
82814623,510
82824666,508
82834710,506
82844720,511
82854759,509
82864796,505
82874805,509
82884843,510
82894882,507
82904891,507
82914933,511
82924974,511
82934985,508
82945026,508
82955071,510
82965083,506
82975125,508
82985170,502
82995183,508
83005227,508
83015270,510
83025282,506
83035324,509
83045365,507
83055403,506
83065413,510
83075456,500
83085498,500
83095510,505
83105550,504
83115586,503
83125595,505
83135635,507
83145672,503
83155678,507
83165719,509
83175761,503
83185773,505
83195812,503
83205849,503
83215863,509
83225908,506
83235952,508
83245963,505
83256007,507
83266055,506
83276075,508
83286128,509
83296180,505
83306234,507
83316253,507
83326303,501
83336354,506
83346375,505
83356425,504
83366475,508
83376495,508
83386544,508
83396591,513
83406605,510
83416649,518
83426694,516
83436711,514
83446756,518
83456799,516
83466812,513
83476858,510
83486905,511
83496919,514
83506965,516
83517010,509
83527024,516
83537066,511
83547108,516
83557150,510
83567161,511
83577202,509
83587245,510
83597257,509
83607301,511
83617343,512
83627356,511
83637400,508
83647443,512
83657456,506
83667501,511
83677547,511
83687561,505
83697605,508
83707649,511
83717661,508
83727706,511
83737752,504
83747769,509
83757815,505
83767860,505
83777875,509
83787919,509
83797965,504
83808010,500
83818023,504
83828069,505
83838115,506
83848130,509
83858174,506
83868217,508
83878231,509
83888273,502
83898315,506
83908325,507
83918366,502
83928409,502
83938422,507
83948466,501
83958510,509
83968521,511
83978565,505
83988608,503
83998620,511
84008660,507
84018701,502
84028714,505
84038757,508
84048799,507
84058841,507
84068852,509
84078893,509
84088935,509
84098946,508
84108987,511
84119031,512
84129041,512
84139081,510
84149122,511
84159133,514
84169176,508
84179216,516
84189225,519
84199264,513
84209306,516
84219315,519
84229356,516
84239395,518
84249405,512
84259445,507
84269483,514
84279494,510
84289535,508
84299575,512
84309613,511
84319623,507
84329661,509
84339701,503
84349709,509
84359751,506
84369792,503
84379802,508
84389844,505
84399883,504
84409893,502
84419933,507
84429976,508
84439987,509
84450029,511
84460071,508
84470079,510
84480118,501
84490155,502
84500162,509
84510201,511
84520238,509
84530242,504
84540277,511
84550315,507
84560355,506
84570363,508
84580401,501
84590436,509
84600442,501
84610480,502
84620520,502
84630527,506
84640565,502
84650603,508
84660611,504
84670650,511
84680689,510
84690697,506
84700735,506
84710774,505
84720784,508
84730824,510
84740864,510
84750873,507
84760914,509
84770952,508
84780962,505
84791004,503
84801044,506
84811084,508
84821092,507
84831128,511
84841164,501
84851170,508
84861206,508
84871246,502
84881257,506
84891300,508
84901338,509
84911344,517
84921387,511
84931429,518
84941439,518
84951478,516
84961512,521
84971523,519
84981562,515
84991602,513
85001611,519
85011650,516
85021688,512
85031693,515
85041729,515
85051766,514
85061801,510
85071806,513
85081840,509
85091872,510
85101873,509
85111905,512
85121940,503
85131941,508
85141974,502
85152012,510
85162020,503
85172058,503
85182094,510
85192099,506
85202140,511
85212176,512
85222182,507
85232221,510
85242261,509
85252269,507
85262307,510
85272337,512
85282340,511
85292379,507
85302421,511
85312463,511
85322471,507
85332510,505
85342553,511
85352565,501
85362606,506
85372643,507
85382650,507
85392682,509
85402711,501
85412714,508
85422749,503
85432786,503
85442794,508
85452829,505
85462866,511
85472875,505
85482912,508
85492950,511
85502960,510
85513000,511
85523039,508
85533048,510
85543086,504
85553127,509
85563167,502
85573176,509
85583215,508
85593253,509
85603261,513
85613301,505
85623341,513
85633346,515
85643380,521
85653415,520
85663420,519
85673455,522
85683486,525
85693485,524
85703517,521
85713550,524
85723553,516
85733588,520
85743625,514
85753633,518
85763672,519
85773710,515
85783715,518
85793752,510
85803794,512
85813834,511
85823842,511
85833880,511
85843921,505
85853930,505
85863972,508
85874012,506
85884018,509
85894056,507
85904094,508
85914097,502
85924134,506
85934171,502
85944178,507
85954218,501
85964256,507
85974262,502
85984303,508
85994342,504
86004348,507
86014382,504
86024418,502
86034422,502
86044458,506
86054492,503
86064529,502
86074537,502
86084574,505
86094609,497
86104616,502
86114654,506
86124691,503
86134699,505
86144737,506
86154774,507
86164781,503
86174820,507
86184859,508
86194865,510
86204900,507
86214937,508
86224942,504
86234980,506
86245018,510
86255028,506
86265069,508
86275108,506
86285117,511
86295156,502
86305193,510
86315234,510
86325242,516
86335281,514
86345320,519
86355329,520
86365368,520
86375409,523
86385416,519
86395456,523
86405494,524
86415502,522
86425538,514
86435575,520
86445582,520
86455620,515
86465660,515
86475666,513
86485703,505
86495741,513
86505749,511
86515787,511
86525826,501
86535833,508
86545871,510
86555906,503
86565944,509
86575951,503
86585989,508
86596030,512
86606039,510
86616081,507
86626119,510
86636131,511
86646171,514
86656211,517
86666221,510
86676259,509
86686300,513
86696307,509
86706345,512
86716380,507
86726383,503
86736417,508
86746455,505
86756462,505
86766501,509
86776541,501
86786550,506
86796589,504
86806627,506
86816662,502
86826667,500
86836705,506
86846742,508
86856748,506
86866784,507
86876821,499
86886828,500
86896864,506
86906897,508
86916902,506
86926940,508
86936978,508
86946983,508
86957019,508
86967059,513
86977067,517
86987107,517
86997146,523
87007154,523
87017191,523
87027230,528
87037238,523
87047276,525
87057312,529
87067347,524
87077355,523
87087393,522
87097429,520
87107432,512
87117469,516
87127503,515
87137509,510
87147543,505
87157578,507
87167583,502
87177619,505
87187657,505
87197661,504
87207699,502
87217735,500
87227740,500
87237777,502
87247813,504
87257820,503
87267859,502
87277896,507
87287906,504
87297945,508
87307983,508
87318016,510
87328022,509
87338060,505
87348097,505
87358104,506
87368141,505
87378175,508
87388176,505
87398208,502
87408238,505
87418238,505
87428269,508
87438302,504
87448306,501
87458338,504
87468370,498
87478375,505
87488414,502
87498449,506
87508454,507
87518489,503
87528529,505
87538536,499
87548571,508
87558610,508
87568641,500
87578645,503
87588686,499
87598724,502
87608734,506
87618772,504
87628808,512
87638812,513
87648850,512
87658891,516
87668901,521
87678942,526
87688983,531
87698992,532
87709031,525
87719069,533
87729075,530
87739112,530
87749151,524
87759160,521
87769201,521
87779242,518
87789253,525
87799292,520
87809333,521
87819372,513
87829376,512
87839414,512
87849454,510
87859464,508
87869504,509
87879545,504
87889558,509
87899596,501
87909633,504
87919641,505
87929680,508
87939719,500
87949729,506
87959769,508
87969809,506
87979816,507
87989855,503
87999894,508
88009904,509
88019945,499
88029983,510
88039994,501
88050034,501
88060076,499
88070117,508
88080125,504
88090165,502
88100205,502
88110213,499
88120253,504
88130289,506
88140296,506
88150337,507
88160375,503
88170383,506
88180425,499
88190465,507
88200472,501
88210511,503
88220548,506
88230552,506
88240589,500
88250628,501
88260637,508
88270676,507
88280716,507
88290724,507
88300764,504
88310805,507
88320848,502
88330858,505
88340896,505
88350934,506
88360946,507
88370981,509
88381015,511
88391022,513
88401059,512
88411096,523
88421104,521
88431140,528
88441180,529
88451188,532
88461224,533
88471262,534
88481269,531
88491306,533
88501343,531
88511349,527
88521386,524
88531423,524
88541428,520
88551460,518
88561491,516
88571526,508
88581533,505
88591572,511
88601611,505
88611616,506
88621652,503
88631690,503
88641697,500
88651735,504
88661774,501
88671782,497
88681824,497
88691861,504
88701867,503
88711904,508
88721940,508
88731947,499
88741981,501
88752016,506
88762017,506
88772051,503
88782084,509
88792088,504
88802125,510
88812165,508
88822206,509
88832210,514
88842246,511
88852280,507
88862285,512
88872322,509
88882357,508
88892362,510
88902396,509
88912431,509
88922437,506
88932471,512
88942503,509
88952506,509
88962539,511
88972575,503
88982580,502
88992616,511
89002653,508
89012658,507
89022695,507
89032734,502
89042740,510
89052782,508
89062824,499
89072865,507
89082874,500
89092914,503
89102956,508
89112967,507
89123005,502
89133042,508
89143050,506
89153089,508
89163131,507
89173141,505
89183183,503
89193223,507
89203233,510
89213272,512
89223312,513
89233321,523
89243359,524
89253398,533
89263405,533
89273442,532
89283479,534
89293486,535
89303526,528
89313565,534
89323602,528
89333610,527
89343651,524
89353691,521
89363702,512
89373749,515
89383797,512
89393809,509
89403852,511
89413899,500
89423914,501
89433961,510
89444008,505
89454023,503
89464068,503
89474111,501
89484121,505
89494161,501
89504204,505
89514215,504
89524256,503
89534296,503
89544306,504
89554346,511
89564387,507
89574427,507
89584435,509
89594472,510
89604510,503
89614521,507
89624562,508
89634604,501
89644615,504
89654657,508
89664696,498
89674704,505
89684744,498
89694785,506
89704796,505
89714835,504
89724871,502
89734878,502
89744914,506
89754952,503
89764959,501
89775002,504
89785045,501
89795054,506
89805092,505
89815129,505
89825169,503
89835178,502
89845218,509
89855258,505
89865268,500
89875308,508
89885349,509
89895362,500
89905404,506
89915443,501
89925452,509
89935492,508
89945530,506
89955536,505
89965574,503
89975612,504
89985620,499
89995661,508
90005699,503
90015707,503
90025748,507
90035786,515
90045783,519
90055834,524
90065874,528
90075913,533
90085919,531
90095955,535
90105994,533
90116001,537
90126039,527
90136080,529
90146087,525
90156124,527
90166162,520
90176171,519
90186204,519
90196242,512
90206250,512
90216290,511
90226330,503
90236340,508
90246384,504
90256427,503
90266438,501
90276479,502
90286520,504
90296519,501
90306577,504
90316621,498
90326665,500
90336675,504
90346716,506
90356759,504
90366769,506
90376808,508
90386848,506
90396861,509
90406902,506
90416947,502
90426961,504
90437005,505
90447044,502
90457051,504
90467088,506
90477125,504
90487130,503
90497167,504
90507209,500
90517206,505
90527256,504
90537296,506
90547294,499
90557344,505
90567384,498
90577427,501
90587436,505
90597478,499
90607517,506
90617525,505
90627563,502
90637603,507
90647612,498
90657652,502
90667691,499
90677700,505
90687736,505
90697775,506
90707781,499
90717821,503
90727857,505
90737850,505
90747898,504
90757934,505
90767928,507
90777978,503
90788018,508
90798016,499
90808066,499
90818103,505
90828139,503
90838150,507
90848190,505
90858231,508
90868239,505
90878278,510
90888315,509
90898321,510
90908361,518
90918399,524
90928401,525
90938439,523
90948479,533
90958476,531
90968528,528
90978566,538
90988561,532
90998612,529
91008650,529
91018645,523
91028694,519
91038733,517
91048731,519
91058778,510
91068817,515
91078855,510
91088859,504
91098896,506
91108931,508
91118937,503
91128974,504
91139012,501
91149014,502
91159049,506
91169087,504
91179080,503
91189126,503
91199161,499
91209154,504
91219204,505
91229243,508
91239236,505
91249285,501
91259325,506
91269324,503
91279372,502
91289410,508
91299407,505
91309455,503
91319496,499
91329535,503
91339544,503
91349584,499
91359623,499
91369628,504
91379667,507
91389707,504
91399703,503
91409753,506
91419792,507
91429787,505
91439835,505
91449872,501
91459867,506
91469914,505
91479954,499
91489958,503
91500013,508
91510058,504
91520064,507
91530105,505
91540149,508
91550154,505
91560196,499
91570233,500
91580272,507
91590277,506
91600316,506
91610354,503
91620349,502
91630397,504
91640433,507
91650425,501
91660473,502
91670509,505
91680503,506
91690548,502
91700578,503
91710572,507
91720614,505
91730648,509
91740644,508
91750686,505
91760723,510
91770725,503
91780769,507
91790807,514
91800811,524
91810855,527
91820891,530
91830925,535
91840919,534
91850962,534
91860994,531
91870990,528
91881041,529
91891080,524
91901083,526
91911138,520
91921176,522
91931176,517
91941223,514
91951260,510
91961260,507
91971305,510
91981344,509
91991343,500
92001385,505
92011422,507
92021423,503
92031466,500
92041501,502
92051494,507
92061539,501
92071592,507
92081631,508
92091625,508
92101676,507
92111716,507
92121713,508
92131765,508
92141810,504
92151812,504
92161868,507
92171917,508
92181927,508
92191987,508
92202033,505
92212047,506
92222101,505
92232146,503
92242152,502
92252195,501
92262238,501
92272234,504
92282278,495
92292335,500
92302332,505
92312377,508
92322427,501
92332466,503
92342462,504
92352513,504
92362554,500
92372555,497
92382610,502
92392651,503
92402652,502
92412701,503
92422742,500
92432744,503
92442789,508
92452830,503
92462833,504
92472873,506
92482909,506
92492899,501
92502939,509
92512989,504
92522976,510
92533015,505
92543064,508
92553051,506
92563093,504
92573142,502
92583178,508
92593175,508
92603224,508
92613258,499
92623255,498
92633298,506
92643333,505
92653331,510
92663375,510
92673412,511
92683412,512
92693452,513
92703488,516
92713496,519
92723528,521
92733577,513
92743574,521
92753608,519
92763659,517
92773649,518
92783691,520
92793739,515
92803730,515
92813775,509
92823826,512
92833866,509
92843866,507
92853910,506
92863950,506
92873952,502
92883999,507
92894036,507
92904042,503
92914084,504
92924122,505
92934125,508
92944167,502
92954207,505
92964206,506
92974242,508
92984291,499
92994282,509
93004327,508
93014375,503
93024366,504
93034410,501
93044460,508
93054455,507
93064501,506
93074550,503
93084588,507
93094586,506
93104631,506
93114671,500
93124676,502
93134718,505
93144757,504
93154763,499
93164806,508
93174848,508
93184852,504
93194891,505
93204944,503
93214934,497
93224975,502
93235022,502
93245013,501
93255056,499
93265103,507
93275095,499
93285137,506
93295183,501
93305177,506
93315223,504
93325274,503
93335319,500
93345329,509
93355381,506
93365429,505
93375434,505
93385477,504
93395518,505
93405518,505
93415554,508
93425602,502
93435591,511
93445635,514
93455685,510
93465676,514
93475719,514
93485769,517
93495764,515
93505809,518
93515857,519
93525853,520
93535895,516
93545938,513
93555934,516
93565977,513
93576020,510
93586059,510
93596061,514
93606103,510
93616144,508
93626134,509
93636174,503
93646224,504
93656213,506
93666256,501
93676305,499
93686292,501
93696331,503
93706374,507
93716364,503
93726407,504
93736454,508
93746450,503
93756496,504
93766544,503
93776538,509
93786577,501
93796618,508
93806615,505
93816656,503
93826697,501
93836736,507
93846730,507
93856772,506
93866827,506
93876821,507
93886868,508
93896921,507
93906917,507
93916962,505
93927011,501
93937003,508
93947045,500
93957089,509
93967085,508
93977128,508
93987176,502
93997174,511
94007218,507
94017261,506
94027259,503
94037299,505
94047338,507
94057338,503
94067370,506
94077411,504
94087461,506
94097451,502
94107495,505
94117546,506
94127538,506
94137584,510
94147633,507
94157624,503
94167668,510
94177715,507
94187708,512
94197750,513
94207795,516
94217793,520
94227836,519
94237889,524
94247898,527
94257946,527
94267988,522
94277988,522
94288016,524
94298061,520
94308075,514
94318106,519
94328155,519
94338213,516
94348207,518
94358254,516
94368308,511
94378306,514
94388352,514
94398402,509
94408398,509
94418445,507
94428490,511
94438483,499
94448527,503
94458573,507
94468573,500
94478620,501
94488668,502
94498673,501
94508705,509
94518750,511
94528767,511
94538796,509
94548842,510
94558858,510
94568884,509
94578925,507
94588977,508
94598966,506
94609009,506
94619054,501
94629049,507
94639096,505
94649142,501
94659138,506
94669180,504
94679225,508
94689219,499
94699264,500
94709310,502
94719309,508
94729337,499
94739377,507
94749387,506
94759413,508
94769459,507
94779474,501
94789502,499
94799547,498
94809566,501
94819598,507
94829644,503
94839694,500
94849690,501
94859734,507
94869781,508
94879779,509
94889823,506
94899868,508
94909871,506
94919920,509
94929968,511
94939971,505
94950005,512
94960049,513
94970065,523
94980093,519
94990140,519
95000157,520
95010186,524
95020230,527
95030246,523
95040270,522
95050313,515
95060325,516
95070349,513
95080392,519
95090437,514
95100431,514
95110476,513
95120522,509
95130521,505
95140567,510
95150611,508
95160614,507
95170650,507
95180696,502
95190714,503
95200757,506
95210795,507
95220813,506
95230842,502
95240886,505
95250901,505
95260928,507
95270971,505
95280986,512
95291013,505
95301057,508
95311070,509
95321098,504
95331143,508
95341187,509
95351180,505
95361221,509
95371262,505
95381263,507
95391307,505
95401339,506
95411353,500
95421390,504
95431427,504
95441441,504
95451468,505
95461511,507
95471526,505
95481558,505
95491605,508
95501624,508
95511655,505
95521701,504
95531718,508
95541749,506
95551793,504
95561809,506
95571837,508
95581882,510
95591925,505
95601926,508
95611972,507
95622009,502
95632029,506
95642074,508
95652117,510
95662138,500
95672173,508
95682225,507
95692246,501
95702279,501
95712328,511
95722351,506
95732384,514
95742430,519
95752448,513
95762484,516
95772534,524
95782553,518
95792583,526
95802631,520
95812644,522
95822677,518
95832727,518
95842776,522
95852782,513
95862822,514
95872859,513
95882877,514
95892908,515
95902956,509
95912972,511
95923002,512
95933051,502
95943073,510
95953107,502
95963156,507
95973174,507
95983205,507
95993250,503
96003266,506
96013296,505
96023341,502
96033358,505
96043395,508
96053446,507
96063470,501
96073505,505
96083545,506
96093585,508
96103604,511
96113637,506
96123687,511
96133705,508
96143736,510
96153784,508
96163802,506
96173834,500
96183880,510
96193899,508
96203932,504
96213980,504
96223999,505
96234031,508
96244073,509
96254089,502
96264122,509
96274168,508
96284186,505
96294221,507
96304262,503
96314287,508
96324320,500
96334348,500
96344392,508
96354407,508
96364433,501
96374477,502
96384494,507
96394523,501
96404572,507
96414588,501
96424619,508
96434665,510
96444678,504
96454711,508
96464758,507
96474773,508
96484806,511
96494850,504
96504866,513
96514895,513
96524924,517
96534948,517
96544978,513
96555006,522
96565036,520
96575065,519
96585094,516
96595137,520
96605152,524
96615178,517
96625224,522
96635239,517
96645271,515
96655317,514
96665332,513
96675366,513
96685415,515
96695431,504
96705466,507
96715512,513
96725533,507
96735572,511
96745612,510
96755646,505
96765687,512
96775726,506
96785768,511
96795802,509
96805833,511
96815864,505
96825896,507
96835925,508
96845974,502
96855994,507
96866023,504
96876072,509
96886088,507
96896117,506
96906161,507
96916176,500
96926205,507
96936252,507
96946271,503
96956305,507
96966339,499
96976367,503
96986397,507
96996426,509
97006457,504
97016488,506
97026515,506
97036544,504
97046576,507
97056605,500
97066633,508
97076666,506
97086695,508
97096741,505
97106756,508
97116784,504
97126830,509
97136846,505
97146879,502
97156926,506
97166943,502
97176975,504
97187009,510
97197037,510
97207069,507
97217098,510
97227131,506
97237164,499
97247194,505
97257229,504
97267262,508
97277293,512
97287323,515
97297354,510
97307386,513
97317422,516
97327457,521
97337490,522
97347539,515
97357558,521
97367591,519
97377638,514
97387657,514
97397690,514
97407723,515
97417753,517
97427784,518
97437816,509
97447851,510
97457885,505
97467914,511
97477947,509
97487979,509
97498011,510
97508044,508
97518079,511
97528112,508
97538147,509
97548182,509
97558214,508
97568250,502
97578286,507
97588323,505
97598373,512
97608392,504
97618427,509
97628461,505
97638491,504
97648524,502
97658553,508
97668585,512
97678618,508
97688649,510
97698681,505
97708714,500
97718745,507
97728780,507
97738813,505
97748845,511
97758877,508
97768911,504
97778941,508
97788969,508
97799001,501
97809035,505
97819071,504
97829107,508
97839140,501
97849176,509
97859209,507
97869241,505
97879268,502
97889298,504
97899328,510
97909358,506
97919389,507
97929421,500
97939451,510
97949482,504
97959513,504
97969543,506
97979574,505
97989604,506
97999634,506
98009664,504
98019696,506
98029732,501
98039765,508
98049801,506
98059832,512
98069863,512
98079894,517
98089925,518
98099956,514
98109991,523
98120026,521
98130057,518
98140091,517
98150125,524
98160154,524
98170186,514
98180217,523
98190246,517
98200274,519
98210301,515
98220329,514
98230357,514
98240382,509
98250409,513
98260436,509
98270467,509
98280501,508
98290542,510
98300577,508
98310616,510
98320655,510
98330691,506
98340726,511
98350761,506
98360791,506
98370823,503
98380852,504
98390880,510
98400904,511
98410929,509
98420956,508
98430980,507
98441009,510
98451041,502
98461074,508
98471105,506
98481136,506
98491165,508
98501193,503
98511224,501
98521256,508
98531290,508
98541321,507
98551356,510
98561387,504
98571416,507
98581446,504
98591478,508
98601509,506
98611539,505
98621569,504
98631596,502
98641626,505
98651660,509
98661689,507
98671719,507
98681750,502
98691782,506
98701815,503
98711847,502
98721881,500
98731913,508
98741946,509
98751978,508
98762007,509
98772037,508
98782066,508
98792095,506
98802125,506
98812157,506
98822187,503
98832219,505
98842252,512
98852286,512
98862321,510
98872354,515
98882388,517
98892423,512
98902458,515
98912493,515
98922527,514
98932561,517
98942596,517
98952627,510
98962658,515
98972688,513
98982718,512
98992750,511
99002781,508
99012812,510
99022841,508
99032874,508
99042903,510
99052936,502
99062973,511
99073009,506
99083043,510
99093076,508
99103108,508
99113140,508
99123168,507
99133199,507
99143231,510
99153264,506
99163297,509
99173329,511
99183364,510
99193396,506
99203429,507
99213467,509
99223504,501
99233532,505
99243560,502
99253591,503
99263621,506
99273653,509
99283684,505
99293715,509
99303748,506
99313781,504
99323811,501
99333846,507
99343878,503
99353908,509
99363940,507
99373972,507
99384002,507
99394034,510
99404063,508
99414094,509
99424121,511
99434152,503
99444185,507
99454215,511
99464246,508
99474279,510
99484307,510
99494336,504
99504367,507
99514396,503
99524428,504
99534458,500
99544487,508
99554517,508
99564543,505
99574571,502
99584607,503
99594638,507
99604666,511
99614691,510
99624720,512
99634748,513
99644773,517
99654801,518
99664829,519
99674857,518
99684888,519
99694916,523
99704945,520
99714974,512
99725004,517
99735031,517
99745055,518
99755085,515
99765112,512
99775141,511
99785169,515
99795192,512
99805222,508
99815250,512
99825276,508
99835307,505
99845337,507
99855364,508
99865389,510
99875413,508
99885442,514
99895468,508
99905495,510
99915524,509
99925550,506
99935578,511
99945608,510
99955634,514
99965658,512
99975687,512
99985711,503
99995741,508
100005771,505
100015794,501
100025824,506
100035851,502
100045876,504
100055910,505
100065940,507
100075964,511
100086000,507
100096030,509
100106059,511
100116085,508
100126116,503
100136147,502
100146176,509
100156206,502
100166237,502
100176263,509
100186290,504
100196318,505
100206350,508
100216382,511
100226412,508
100236438,506
100246468,505
100256499,503
100266526,509
100276562,508
100286592,510
100296614,507
100306644,508
100316674,504
100326696,507
100336730,507
100346762,509
100356795,510
100366825,512
100376853,507
100386879,517
100396906,518
100406935,515
100416964,520
100426991,520
100437019,521
100447050,520
100457076,513
100467105,517
100477135,518
100487156,514
100497192,510
100507228,515
100517255,512
100527287,509
100537317,503
100547340,508
100557377,507
100567409,511
100577431,508
100587466,503
100597494,504
100607525,501
100617553,510
100627583,506
100637611,507
100647637,506
100657669,505
100667699,506
100677726,504
100687759,512
100697791,507
100707819,511
100717848,503
100727875,503
100737896,506
100747929,507
100757958,506
100767982,511
100778018,507
100788047,508
100798067,509
100808104,509
100818134,504
100828157,505
100838198,505
100848230,509
100858260,501
100868288,508
100878315,512
100888346,510
100898373,509
100908401,510
100918430,503
100928456,508
100938488,508
100948517,505
100958542,512
100968577,502
100978609,511
100988631,508
100998662,509
101008690,502
101018710,509
101028741,507
101038767,505
101048785,505
101058819,507
101068847,507
101078864,501
101088902,509
101098930,509
101108959,503
101118986,512
101129018,505
101139049,515
101149075,514
101159109,509
101169139,519
101179161,511
101189195,518
101199220,512
101209242,520
101219276,515
101229301,514
101239321,517
101249354,514
101259382,514
101269403,512
101279441,516
101289469,510
101299488,516
101309528,506
101319555,513
101329570,505
101339606,507
101349635,510
101359660,510
101369678,512
101379707,511
101389733,513
101399749,508
101409777,512
101419800,504
101429819,510
101439850,504
101449878,504
101459898,509
101469934,510
101479963,507
101489983,508
101500020,508
101510049,510
101520068,511
101530105,504
101540135,501
101550151,506
101560186,508
101570213,501
101580229,509
101590266,508
101600300,505
101610333,508
101620357,511
101630391,506
101640419,508
101650445,508
101660479,506
101670510,506
101680532,512
101690572,508
101700603,508
101710624,508
101720664,509
101730694,501
101740713,505
101750752,506
101760783,509
101770801,510
101780841,510
101790875,503
101800894,509
101810934,505
101820967,510
101830983,504
101841023,505
101851059,513
101861091,513
101871116,516
101881153,520
101891189,519
101901214,515
101911252,523
101921281,518
101931303,523
101941342,515
101951373,522
101961397,519
101971440,513
101981472,517
101991491,516
102001530,508
102011561,515
102021580,505
102031619,508
102041648,503
102051658,505
102061697,512
102071727,512
102081738,511
102091773,507
102101806,502
102111836,510
102121858,509
102131896,509
102141927,511
102151947,511
102161983,509
102172012,510
102182028,503
102192066,511
102202093,505
102212108,511
102222145,503
102232176,510
102242193,501
102252230,510
102262260,510
102272277,508
102282316,507
102292351,509
102302369,505
102312413,507
102322449,500
102332464,511
102342504,507
102352539,506
102362571,509
102372594,510
102382633,507
102392663,507
102402680,507
102412717,505
102422747,504
102432768,505
102442804,510
102452836,508
102462853,505
102472892,508
102482925,509
102492938,510
102502974,509
102513008,506
102523022,508
102533061,510
102543094,501
102553105,507
102563144,501
102573181,511
102583193,508
102593234,505
102603274,509
102613308,515
102623327,518
102633368,520
102643396,519
102653414,520
102663455,519
102673489,524
102683507,524
102693546,522
102703580,522
102713599,517
102723640,515
102733676,515
102743693,513
102753734,513
102763770,516
102773784,510
102783823,513
102793861,510
102803873,510
102813913,507
102823952,509
102833966,510
102844005,508
102854043,506
102864068,504
102874085,513
102884120,512
102894147,502
102904161,504
102914197,510
102924227,512
102934241,511
102944276,503
102954306,507
102964318,509
102974356,509
102984391,503
102994407,512
103004445,505
103014480,507
103024495,505
103034537,509
103044579,503
103054593,507
103064634,505
103074676,507
103084684,508
103094720,509
103104756,502
103114783,508
103124795,501
103134830,502
103144852,506
103154859,504
103164885,509
103174909,508
103184922,507
103194959,508
103204991,508
103215003,508
103225041,508
103235075,507
103245087,507
103255131,505
103265171,507
103275183,509
103285224,505
103295265,507
103305279,507
103315324,506
103325365,509
103335377,511
103345418,512
103355462,517
103365501,516
103375518,521
103385559,522
103395595,526
103405609,526
103415651,522
103425692,528
103435710,527
103445750,525
103455788,526
103465801,526
103475841,521
103485878,523
103495891,520
103505931,515
103515971,515
103525979,516
103536019,516
103546058,512
103556068,516
103566101,509
103576137,505
103586145,512
103596188,510
103606229,501
103616265,509
103626284,512
103636324,502
103646359,504
103656373,511
103666414,508
103676450,511
103686462,508
103696504,510
103706541,509
103716553,512
103726593,512
103736631,510
103746640,508
103756681,508
103766721,511
103776732,507
103786772,507
103796813,508
103806821,505
103816862,508
103826900,505
103836907,507
103846946,507
103856986,508
103867021,507
103877038,506
103887081,508
103897121,509
103907137,505
103917175,507
103927213,506
103937218,504
103947259,506
103957302,507
103967314,508
103977351,500
103987389,508
103997398,504
104007436,505
104017477,501
104027488,504
104037531,500
104047572,508
104057581,507
104067619,503
104077658,506
104087665,508
104097701,508
104107741,505
104117776,507
104127785,505
104137819,506
104147855,503
104157862,509
104167897,510
104177933,512
104187940,511
104197975,517
104208010,516
104218015,524
104228054,527
104238093,522
104248100,529
104258138,525
104268170,530
104278175,530
104288207,530
104298241,527
104308246,527
104318285,521
104328321,522
104338328,525
104348365,520
104358402,521
104368437,520
104378443,514
104388480,513
104398512,514
104408518,514
104418550,509
104428584,510
104438590,503
104448625,507
104458664,509
104468673,505
104478714,507
104488751,503
104498753,500
104508786,507
104518822,505
104528831,505
104538869,506
104548905,501
104558909,506
104568942,506
104578977,509
104588983,504
104599018,506
