timestamp, ppg
11380825,509
11390490,507
11400527,501
11410562,502
11420565,508
11430600,509
11440634,505
11450641,505
11460680,510
11470719,504
11480727,508
11490767,502
11500803,507
11510810,501
11520850,507
11530888,509
11540896,507
11550935,509
11560974,510
11570983,512
11581023,511
11591064,508
11601070,508
11611107,510
11621149,507
11631157,503
11641198,508
11651241,501
11661282,505
11671292,509
11681335,508
11691378,508
11701390,506
11711429,499
11721469,502
11731478,505
11741515,502
11751552,509
11761559,506
11771596,506
11781633,505
11791637,506
11801675,508
11811710,507
11821724,502
11831769,506
11841811,505
11851824,508
11861860,504
11871900,502
11881909,506
11891948,505
11901986,505
11912025,506
11922034,505
11932073,504
11942110,503
11952116,508
11962153,499
11972188,501
11982191,508
11992226,512
12002260,516
12012269,520
12022306,518
12032343,526
12042348,527
12052384,521
12062424,524
12072433,524
12082470,517
12092503,515
12102507,510
12112542,513
12122578,507
12132584,507
12142617,504
12152654,501
12162689,508
12172696,511
12182731,510
12192767,510
12202770,504
12212800,509
12222832,509
12232834,509
12242866,509
12252899,502
12262905,502
12272943,507
12282979,508
12292983,508
12303020,503
12313055,507
12323060,511
12333099,501
12343136,502
12353141,507
12363181,503
12373220,505
12383231,510
12393272,508
12403313,510
12413352,507
12423358,514
12433394,507
12443432,503
12453445,506
12463487,501
12473528,508
12483537,507
12493575,509
12503616,510
12513625,507
12523663,502
12533702,506
12543710,509
12553751,510
12563793,509
12573800,509
12583842,508
12593882,511
12603890,509
12613934,509
12623977,508
12633988,506
12644028,510
12654070,505
12664113,505
12674123,510
12684162,504
12694204,505
12704219,507
12714266,511
12724310,508
12734324,504
12744371,510
12754416,504
12764429,509
12774473,509
12784516,508
12794531,508
12804575,509
12814620,508
12824636,507
12834683,505
12844729,502
12854744,504
12864792,507
12874840,510
12884853,512
12894891,508
12904932,511
12914975,519
12924989,519
12935032,522
12945073,525
12955084,526
12965126,521
12975168,525
12985179,518
12995221,523
13005263,522
13015273,518
13025317,518
13035361,517
13045372,515
13055413,509
13065454,512
13075468,511
13085510,509
13095552,504
13105562,512
13115602,508
13125643,510
13135654,510
13145694,503
13155735,508
13165774,510
13175787,501
13185829,510
13195869,512
13205881,510
13215923,504
13225965,512
13235976,505
13246015,510
13256054,511
13266057,509
13276091,506
13286131,504
13296143,510
13306184,503
13316226,512
13326240,507
13336280,506
13346319,508
13356327,505
13366368,503
13376407,506
13386418,502
13396460,503
13406502,510
13416545,504
13426556,507
13436596,508
13446636,502
13456647,510
13466686,503
13476727,509
13486740,506
13496784,505
13506824,506
13516835,507
13526875,508
13536915,510
13546924,509
13556963,503
13566999,508
13577004,508
13587040,508
13597080,508
13607092,510
13617130,509
13627170,509
13637179,512
13647220,509
13657254,504
13667289,508
13677292,506
13687329,512
13697365,513
13707372,514
13717409,514
13727447,519
13737454,515
13747493,527
13757531,521
13767539,526
13777578,525
13787619,525
13797627,518
13807665,523
13817701,519
13827709,517
13837746,513
13847784,513
13857789,504
13867828,509
13877867,505
13887877,505
13897917,502
13907955,503
13917991,510
13927996,508
13938030,501
13948068,505
13958075,510
13968114,502
13978156,508
13988168,501
13998208,507
14008247,510
14018251,505
14028289,503
14038326,505
14048332,511
14058368,513
14068408,509
14078418,511
14088455,509
14098491,509
14108500,505
14118539,504
14128576,505
14138583,508
14148620,502
14158658,508
14168694,511
14178702,510
14188735,494
14198768,512
14208768,507
14218802,507
14228837,507
14238841,508
14248875,508
14258912,509
14268915,508
14278946,511
14288981,506
14298986,510
14309021,506
14319056,505
14329064,507
14339103,510
14349141,510
14359147,502
14369186,509
14379226,511
14389236,507
14399271,511
14409307,504
14419342,510
14429347,507
14439381,503
14449418,512
14459424,506
14469459,508
14479496,511
14489503,514
14499541,514
14509575,516
14519581,524
14529619,527
14539656,531
14549662,526
14559699,527
14569735,529
14579738,522
14589771,518
14599805,519
14609812,517
14619848,512
14629888,514
14639896,512
14649935,511
14659973,511
14670010,506
14680016,509
14690052,500
14700086,507
14710092,507
14720127,504
14730166,500
14740174,504
14750210,506
14760248,509
14770256,503
14780293,503
14790330,509
14800337,508
14810374,509
14820413,511
14830423,508
14840460,507
14850499,503
14860508,512
14870552,510
14880595,513
14890606,509
14900646,509
14910687,512
14920729,507
14930739,511
14940777,510
14950815,505
14960824,512
14970864,510
14980905,506
14990916,504
15000954,513
15010990,507
15020999,509
15031037,510
15041075,509
15051082,512
15061122,503
15071160,504
15081162,502
15091199,508
15101238,501
15111246,510
15121280,507
15131318,504
15141327,509
15151366,504
15161405,507
15171443,506
15181451,506
15191489,508
15201525,508
15211534,507
15221572,504
15231610,508
15241617,509
15251655,507
15261693,510
15271700,512
15281739,507
15291773,516
15301777,516
15311814,515
15321853,522
15331857,525
15341894,518
15351933,518
15361942,527
15371979,525
15382016,520
15392023,521
15402062,513
15412101,515
15422137,518
15432144,512
15442180,513
15452215,505
15462223,506
15472259,504
15482298,511
15492306,505
15502348,509
15512386,508
15522391,504
15532427,503
15542459,503
15552461,502
15562494,502
15572528,499
15582533,508
15592564,504
15602597,502
15612602,501
15622639,502
15632676,511
15642681,508
15652718,503
15662754,507
15672790,510
15682796,508
15692832,512
15702867,511
15712871,513
15722903,508
15732939,508
15742944,504
15752981,509
15763021,509
15773029,507
15783067,509
15793106,503
15803112,509
15813150,503
15823189,501
15833197,505
15843236,508
15853274,507
15863282,508
15873318,511
15883354,508
15893359,508
15903396,510
15913432,503
15923471,510
15933477,510
15943515,509
15953553,504
15963557,508
15973596,508
15983636,500
15993646,499
16003687,505
16013728,499
16023739,504
16033776,509
16043814,505
16053822,510
16063860,513
16073899,518
16083908,513
16093946,524
16103987,526
16113994,525
16124031,524
16134067,530
16144070,530
16154108,526
16164146,522
16174184,526
16184190,516
16194229,519
16204267,520
16214277,516
16224316,513
16234356,515
16244363,508
16254399,509
16264432,508
16274438,509
16284475,509
16294511,503
16304516,504
16314553,502
16324592,500
16334601,506
16344640,504
16354681,501
16364691,505
16374730,508
16384770,505
16394779,508
16404817,503
16414856,509
16424893,509
16434902,509
16444941,510
16454980,507
16464987,508
16475024,508
16485061,506
16495072,508
16505111,506
16515148,506
16525155,502
16535192,501
16545230,502
16555235,499
16565273,508
16575315,500
16585322,507
16595361,508
16605403,507
16615413,507
16625455,501
16635497,500
16645505,504
16655541,503
16665578,507
16675618,508
16685625,508
16695664,506
16705700,509
16715702,503
16725738,507
16735774,501
16745780,500
16755814,509
16765848,505
16775850,506
16785880,503
16795911,506
16805914,506
16815949,507
16825982,506
16835986,501
16846021,509
16856059,509
16866066,518
16876105,519
16886144,524
16896151,528
16906188,527
16916224,526
16926261,529
16936269,524
16946306,528
16956343,519
16966351,524
16976389,514
16986426,512
16996431,511
17006467,512
17016506,511
17026514,509
17036550,506
17046586,500
17056588,505
17066620,504
17076656,506
17086659,505
17096694,503
17106731,499
17116738,503
17126776,496
17136808,505
17146811,504
17156843,504
17166879,501
17176917,509
17186927,508
17196964,505
17207002,507
17217010,508
17227046,510
17237084,508
17247091,509
17257129,505
17267167,506
17277174,505
17287211,505
17297248,506
17307254,503
17317294,505
17327333,502
17337343,504
17347385,502
17357426,503
17367436,499
17377473,499
17387512,504
17397522,505
17407561,506
17417599,502
17427641,508
17437652,504
17447694,506
17457733,506
17467742,507
17477782,508
17487822,508
17497829,504
17507863,499
17517897,503
17527903,499
17537936,505
17547970,499
17557978,504
17568018,507
17578058,503
17588064,505
17598102,503
17608141,503
17618147,504
17628182,503
17638218,500
17648223,502
17658260,505
17668296,504
17678334,510
17688338,512
17698375,509
17708411,520
17718415,525
17728454,526
17738493,530
17748501,531
17758539,536
17768575,528
17778582,529
17788621,527
17798657,527
17808660,524
17818696,520
17828731,518
17838739,517
17848777,514
17858816,505
17868822,503
17878857,501
17888893,507
17898899,502
17908937,500
17918975,503
17929011,500
17939020,497
17949059,497
17959096,497
17969104,496
17979143,498
17989185,500
17999196,497
18009237,496
18019275,496
18029282,498
18039323,495
18049363,496
18059376,497
18069417,496
18079457,501
18089465,497
18099503,503
18109540,503
18119550,505
18129588,500
18139627,503
18149638,497
18159680,495
18169721,500
18179763,497
18189778,497
18199823,493
18209865,498
18219877,494
18229922,495
18239962,500
18249972,500
18260015,500
18270057,500
18280069,498
18290108,494
18300147,492
18310154,493
18320192,490
18330237,497
18340250,493
18350294,492
18360333,486
18370341,493
18380379,496
18390419,487
18400427,495
18410463,494
18420502,494
18430544,492
18440549,490
18450589,496
18460627,489
18470637,495
18480677,494
18490720,498
18500732,498
18510773,500
18520811,497
18530819,498
18540859,499
18550899,502
18560913,506
18570954,507
18580996,512
18591004,513
18601045,512
18611085,521
18621094,517
18631137,524
18641180,522
18651193,520
18661236,521
18671279,518
18681322,518
18691335,516
18701380,509
18711421,513
18721431,509
18731476,509
18741522,508
18751537,506
18761581,507
18771630,508
18781645,508
18791691,507
18801738,505
18811752,503
18821794,503
18831838,508
18841852,506
18851896,502
18861936,508
18871947,508
18881992,504
18892038,504
18902052,510
18912095,506
18922139,504
18932179,504
18942190,505
18952229,510
18962268,506
18972280,510
18982316,506
18992354,505
19002363,506
19012404,499
19022444,503
19032451,505
19042489,506
19052530,508
19062538,502
19072573,504
19082611,506
19092619,507
19102657,504
19112696,507
19122709,506
19132753,500
19142797,509
19152811,508
19162856,508
19172896,507
19182940,503
19192951,500
19202990,505
19213031,507
19223042,509
19233082,504
19243125,510
19253139,502
19263178,504
19273218,507
19283231,509
19293272,506
19303314,509
19313325,501
19323368,502
19333409,510
19343420,507
19353461,510
19363502,508
19373515,506
19383559,509
19393600,508
19403611,501
19413650,510
19423689,508
19433727,509
19443735,507
19453775,514
19463818,509
19473830,518
19483876,521
19493921,524
19503934,528
19513976,530
19524017,536
19534028,534
19544072,534
19554111,533
19564126,530
19574171,530
19584215,531
19594231,525
19604276,528
19614317,525
19624327,523
19634366,521
19644407,518
19654422,516
19664468,515
19674509,509
19684552,506
19694569,510
19704616,508
19714663,510
19724677,510
19734724,510
19744769,512
19754784,515
19764832,511
19774879,516
19784897,511
19794947,515
19804994,515
19815010,515
19825051,515
19835092,510
19845106,517
19855151,517
19865196,513
19875216,513
19885266,515
19895314,508
19905327,513
19915372,513
19925417,511
19935464,516
19945481,512
19955530,512
19965577,512
19975595,512
19985643,510
19995686,513
20005697,508
20015745,509
20025792,505
20035810,510
20045859,512
20055909,513
20065925,507
20075969,509
20086014,507
20096025,512
20106069,506
20116112,510
20126126,507
20136169,508
20146211,512
20156227,510
20166273,509
20176320,510
20186368,505
20196385,503
20206435,512
20216481,512
20226489,504
20236531,512
20246574,514
20256589,511
20266634,516
20276679,522
20286695,522
20296739,532
20306785,536
20316802,536
20326848,535
20336892,547
20346903,547
20356945,546
20366987,544
20377005,537
20387050,538
20397093,530
20407105,527
20417150,529
20427194,528
20437236,524
20447249,520
20457296,517
20467342,514
20477353,509
20487398,508
20497444,509
20507460,509
20517507,503
20527553,505
20537569,508
20547616,508
20557664,507
20567683,507
20577729,511
20587772,507
20597788,513
20607834,512
20617882,516
20627900,513
20637945,514
20647992,509
20658010,505
20668057,506
20678105,511
20688154,510
20698174,503
20708223,504
20718268,506
20728284,507
20738332,508
20748378,505
20758396,500
20768445,499
20778489,503
20788501,501
20798547,502
20808593,502
20818608,504
20828656,503
20838706,498
20848721,507
20858768,500
20868818,501
20878834,501
20888882,500
20898927,509
20908945,508
20918990,509
20929035,503
20939080,508
20949095,505
20959141,505
20969186,505
20979202,501
20989248,505
20999294,500
21009308,506
21019352,504
21029396,507
21039412,508
21049459,510
21059503,509
21069519,514
21079568,521
21089615,525
21099630,532
21109677,536
21119723,537
21129739,537
21139791,536
21149843,532
21159869,528
21169922,531
21179975,530
21190026,519
21200046,521
21210092,518
21220137,511
21230154,511
21240203,504
21250250,511
21260265,505
21270308,504
21280348,501
21290359,503
21300405,502
21310448,502
21320462,501
21330508,504
21340551,503
21350561,503
21360600,499
21370642,505
21380651,504
21390692,499
21400735,505
21410750,508
21420795,511
21430838,502
21440882,500
21450894,506
21460940,503
21470989,500
21481010,505
21491058,509
21501104,504
21511122,501
21521173,504
21531222,506
21541238,501
21551287,503
21561333,501
21571349,501
21581396,500
21591441,499
21601454,499
21611498,500
21621542,502
21631558,498
21641606,499
21651652,497
21661667,497
21671713,504
21681757,502
21691802,501
21701810,502
21711854,502
21721896,508
21731909,501
21741953,504
21751999,499
21762013,505
21772059,506
21782105,508
21792120,505
21802170,507
21812214,505
21822229,505
21832273,503
21842318,502
21852336,502
21862380,506
21872424,505
21882437,509
21892479,514
21902521,516
21912531,521
21922572,524
21932612,530
21942653,528
21952665,532
21962707,533
21972752,528
21982766,533
21992809,528
22002851,524
22012863,524
22022908,520
22032952,513
22042961,511
22053005,507
22063050,512
22073062,504
22083108,499
22093156,506
22103170,502
22113216,504
22123263,496
22133279,495
22143324,492
22153365,500
22163378,500
22173422,501
22183465,502
22193507,501
22203520,496
22213565,496
22223611,502
22233627,498
22243675,504
22253721,508
22263733,507
22273775,505
22283813,503
22293824,508
22303868,503
22313912,508
22323926,508
22333968,505
22344010,500
22354023,506
22364066,504
22374108,503
22384121,499
22394166,498
22404209,499
22414223,496
22424267,506
22434314,499
22444358,505
22454367,502
22464412,496
22474456,502
22484470,506
22494517,503
22504560,503
22514572,505
22524614,505
22534658,502
22544671,504
22554713,504
22564756,506
22574766,506
22584810,506
22594849,507
22604861,506
22614906,502
22624948,499
22634960,501
22645000,504
22655043,499
22665052,503
22675094,503
22685139,505
22695183,499
22705197,507
22715242,505
22725286,500
22735300,507
22745341,502
22755382,508
22765394,507
22775436,517
22785478,517
22795489,524
22805529,522
22815572,529
22825585,533
22835629,531
22845669,532
22855679,529
22865719,528
22875759,523
22885767,521
22895808,513
22905848,514
22915859,507
22925899,509
22935943,500
22945984,505
22955992,503
22966031,497
22976071,497
22986081,503
22996120,500
23006160,498
23016170,496
23026214,497
23036257,499
23046271,499
23056314,503
23066353,496
23076364,501
23086408,504
23096452,504
23106465,503
23116513,503
23126555,505
23136569,504
23146613,504
23156656,504
23166669,503
23176710,502
23186752,501
23196793,503
23206806,503
23216851,503
23226895,503
23236909,497
23246954,500
23256998,501
23267012,503
23277058,503
23287100,500
23297111,506
23307149,501
23317191,499
23327202,505
23337244,507
23347285,506
23357298,507
23367339,506
23377379,505
23387391,506
23397434,506
23407473,507
23417485,508
23427525,508
23437569,505
23447607,506
23457620,503
23467662,511
23477703,508
23487714,501
23497754,510
23507796,500
23517806,509
23527842,503
23537880,502
23547889,508
23557930,507
23567970,502
23577977,508
23588020,508
23598068,502
23608082,506
23618126,510
23628173,507
23638190,507
23648234,512
23658280,515
23668296,518
23678343,526
23688391,529
23698440,532
23708456,535
23718500,535
23728546,531
23738558,529
23748597,524
23758638,525
23768648,524
23778691,514
23788732,519
23798744,515
23808786,506
23818830,513
23828843,509
23838886,508
23848929,506
23858941,507
23868982,506
23879022,502
23889036,500
23899080,503
23909121,502
23919132,500
23929170,497
23939210,504
23949250,499
23959259,503
23969304,511
23979346,508
23989360,508
23999408,511
24009455,502
24019471,513
24029516,512
24039560,504
24049575,502
24059621,497
24069663,499
24079679,502
24089724,502
24099773,500
24109794,505
24119844,507
24129888,503
24139898,503
24149940,506
24159982,504
24169993,506
24180032,506
24190072,502
24200110,503
24210119,501
24220161,510
24230202,507
24240216,506
24250256,505
24260297,506
24270305,501
24280346,507
24290384,503
24300392,503
24310436,503
24320478,503
24330488,503
24340529,506
24350569,495
24360578,504
24370621,506
24380662,509
24390674,510
24400717,506
24410761,501
24420776,507
24430820,501
24440861,507
24450901,509
24460906,510
24470941,502
24480982,505
24490990,508
24501030,510
24511073,504
24521086,511
24531127,514
24541166,524
24551177,532
24561217,527
24571258,529
24581269,539
24591312,537
24601353,536
24611364,533
24621407,535
24631450,535
24641464,531
24651504,526
24661546,516
24671555,516
24681596,509
24691639,511
24701680,503
24711686,505
24721726,504
24731765,500
24741773,498
24751810,503
24761851,500
24771860,499
24781901,502
24791942,502
24801956,508
24812003,509
24822044,512
24832052,508
24842095,512
24852140,517
24862155,515
24872198,511
24882241,516
24892258,513
24902306,514
24912351,512
24922368,512
24932418,510
24942470,505
24952521,505
24962538,509
24972586,505
24982635,505
24992652,506
25002693,502
25012735,505
25022749,507
25032793,504
25042834,507
25052845,505
25062887,502
25072928,506
25082940,510
25092983,506
25103026,503
25113038,506
25123081,508
25133124,507
25143132,509
25153170,509
25163211,508
25173221,510
25183259,501
25193299,505
25203343,510
25213357,502
25223398,505
25233440,508
25243453,508
25253495,506
25263533,504
25273543,505
25283581,505
25293620,501
25303633,506
25313675,504
25323716,506
25333726,507
25343760,508
25353799,508
25363804,503
25373837,508
25383875,517
25393887,515
25403932,526
25413972,529
25423982,528
25434023,533
25444066,531
25454106,538
25464117,535
25474161,534
25484203,531
25494214,528
25504252,519
25514293,513
25524302,515
25534338,510
25544377,510
25554389,502
25564431,497
25574472,504
25584485,499
25594528,497
25604571,497
25614577,494
25624617,499
25634657,504
25644669,499
25654711,510
25664754,499
25674763,508
25684803,509
25694847,505
25704888,513
25714903,509
25724947,507
25734991,506
25745005,507
25755049,513
25765095,505
25775108,508
25785151,505
25795195,512
25805211,506
25815256,509
25825299,505
25835307,510
25845350,504
25855395,508
25865412,505
25875458,506
25885502,506
25895514,505
25905558,509
25915601,503
25925615,505
25935659,504
25945701,507
25955745,509
25965760,509
25975803,502
25985849,503
25995863,509
26005909,506
26015956,508
26025975,510
26036022,507
26046071,510
26056086,507
26066131,508
26076176,505
26086188,503
26096234,512
26106283,506
26116303,503
26126352,511
26136403,511
26146421,508
26156468,516
26166516,521
26176530,527
26186582,533
26196632,533
26206683,539
26216701,535
26226746,534
26236792,533
26246806,531
26256850,530
26266900,528
26276919,522
26286963,512
26297007,511
26307022,506
26317069,509
26327116,509
26337131,504
26347179,506
26357228,502
26367244,501
26377291,496
26387338,497
26397352,497
26407397,498
26417442,499
26427458,504
26437502,507
26447544,502
26457586,511
26467596,512
26477639,512
26487686,513
26497702,514
26507744,510
26517785,511
26527797,513
26537840,507
26547883,512
26557894,507
26567932,508
26577974,509
26587986,503
26598026,501
26608069,505
26618081,503
26628123,502
26638167,503
26648179,499
26658222,500
26668267,498
26678282,506
26688328,506
26698374,509
26708420,506
26718433,507
26728479,500
26738525,507
26748536,503
26758579,504
26768621,500
26778633,506
26788674,506
26798714,505
26808722,503
26818768,502
26828811,504
26838823,500
26848865,505
26858910,507
26868925,506
26878970,503
26889009,510
26899016,511
26909057,518
26919100,515
26929110,525
26939151,532
26949193,530
26959235,537
26969247,539
26979290,539
26989332,528
26999340,530
27009381,528
27019423,524
27029434,517
27039476,513
27049521,515
27059535,511
27069581,508
27079627,504
27089637,506
27099677,507
27109716,504
27119727,503
27129770,503
27139809,497
27149819,499
27159860,503
27169901,504
27179914,507
27189958,504
27199997,505
27210041,511
27220052,502
27230095,512
27240138,505
27250152,503
27260199,510
27270244,507
27280259,507
27290308,506
27300358,510
27310377,501
27320425,504
27330476,505
27340496,508
27350545,508
27360599,505
27370622,502
27380675,508
27390728,502
27400753,506
27410807,505
27420858,508
27430876,505
27440920,505
27450966,504
27461013,507
27471029,504
27481077,506
27491127,509
27501144,507
27511190,503
27521239,509
27531255,506
27541301,505
27551344,509
27561359,508
27571405,506
27581448,508
27591461,508
27601503,509
27611545,507
27621558,507
27631603,506
27641649,502
27651664,504
27661708,515
27671750,516
27681758,524
27691797,524
27701835,529
27711877,529
27721888,537
27731934,538
27741979,539
27751995,537
27762042,531
27772087,526
27782101,522
27792146,520
27802190,518
27812203,513
27822244,512
27832288,509
27842301,510
27852347,501
27862395,505
27872410,499
27882457,504
27892500,501
27902514,505
27912558,502
27922606,500
27932625,502
27942672,503
27952720,506
27962766,507
27972782,507
27982830,507
27992875,504
28002893,506
28012940,510
28022982,508
28032993,509
28043037,506
28053080,510
28063093,505
28073137,504
28083180,497
28093195,510
28103242,505
28113286,504
28123303,504
28133347,506
28143385,502
28153393,499
28163434,506
28173476,505
28183488,499
28193530,508
28203572,507
28213613,506
28223625,503
28233667,504
28243711,504
28253725,505
28263770,509
28273815,510
28283832,503
28293878,509
28303924,508
28313940,503
28323987,509
28334031,506
28344047,503
28354094,505
28364141,502
28374157,505
28384203,509
28394244,508
28404253,509
28414295,503
28424339,502
28434352,501
28444397,501
28454444,508
28464492,505
28474512,514
28484565,515
28494619,520
28504640,523
28514690,531
28524742,530
28534762,535
28544815,540
28554864,536
28564882,529
28574935,528
28584987,519
28595010,517
28605063,518
28615113,512
28625131,506
28635176,507
28645218,505
28655229,498
28665273,499
28675317,502
28685332,499
28695379,495
28705422,494
28715461,498
28725474,498
28735516,493
28745557,500
28755567,503
28765608,505
28775649,507
28785660,499
28795701,508
28805745,501
28815757,504
28825796,510
28835836,508
28845846,509
28855888,510
28865936,504
28875955,508
28886004,504
28896055,506
28906074,505
28916125,499
28926177,505
28936198,501
28946252,504
28956306,501
28966357,505
28976378,502
28986431,504
28996483,502
29006503,504
29016554,501
29026605,504
29036623,499
29046665,507
29056709,505
29066722,507
29076766,506
29086814,503
29096829,506
29106872,500
29116915,501
29126926,507
29136969,506
29147010,508
29157022,502
29167063,508
29177103,507
29187113,504
29197155,501
29207195,509
29217238,508
29227250,506
29237291,508
29247332,508
29257343,500
29267384,509
29277424,499
29287430,507
29297468,510
29307505,514
29317510,513
29327546,524
29337584,527
29347593,523
29357631,526
29367667,534
29377676,532
29387718,529
29397758,521
29407765,515
29417803,514
29427841,512
29437848,511
29447888,510
29457926,502
29467968,504
29477981,503
29488026,499
29498065,496
29508073,498
29518113,498
29528159,495
29538172,496
29548216,496
29558259,505
29568270,499
29578312,504
29588354,506
29598368,505
29608412,507
29618455,503
29628465,508
29638503,504
29648542,510
29658548,511
29668587,510
29678626,510
29688634,506
29698672,504
29708714,506
29718755,507
29728765,506
29738807,505
29748847,504
29758858,505
29768900,508
29778941,502
29788952,501
29798992,507
29809035,504
29819041,506
29829083,507
29839126,503
29849137,498
29859176,506
29869214,502
29879222,507
29889261,502
29899301,505
29909308,507
29919346,505
29929383,503
29939388,507
29949424,506
29959459,504
29969497,508
29979506,504
29989545,505
29999582,503
30009590,500
30019627,507
30029665,504
30039673,501
30049710,504
30059746,503
30069753,514
30079795,513
30089835,522
30099845,525
30109887,528
30119928,528
30129939,531
30139983,527
30150025,531
30160035,528
30170074,520
30180117,519
30190132,521
30200178,512
30210221,513
30220263,507
30230275,511
30240319,500
30250362,506
30260376,502
30270417,503
30280453,501
30290463,499
30300505,499
30310547,499
30320556,497
30330596,495
30340636,504
30350643,500
30360685,499
30370725,506
30380731,505
30390771,505
30400815,504
30410824,506
30420862,510
30430902,505
30440910,507
30450950,502
30460991,506
30471033,507
30481042,502
30491081,505
30501122,507
30511130,504
30521168,507
30531206,503
30541207,508
30551239,505
30561278,503
30571289,505
30581331,507
30591373,507
30601383,505
30611425,506
30621470,499
30631483,501
30641527,504
30651568,501
30661576,506
30671616,504
30681653,508
30691662,508
30701698,500
30711738,508
30721776,507
30731787,508
30741831,503
30751875,502
30761887,507
30771930,499
30781970,507
30791978,502
30802018,507
30812058,507
30822068,507
30832107,505
30842147,506
30852156,513
30862197,515
30872238,520
30882249,516
30892289,526
30902328,530
30912339,527
30922381,527
30932422,527
30942432,533
30952473,534
30962512,530
30972551,521
30982564,520
30992607,518
31002652,513
31012669,512
31022713,511
31032760,510
31042775,508
31052821,501
31062865,506
31072878,497
31082923,497
31092969,505
31102986,499
31113034,496
31123079,506
31133094,505
31143136,507
31153177,505
31163188,503
31173229,506
31183269,508
31193282,506
31203322,508
31213366,511
31223408,511
31233419,506
31243457,501
31253499,507
31263510,505
31273549,508
31283589,499
31293599,508
31303640,507
31313683,508
31323699,508
31333749,505
31343797,508
31353819,502
31363866,509
31373913,501
31383930,505
31393969,506
31404007,508
31414015,502
31424057,501
31434098,509
31444109,507
31454153,500
31464197,507
31474237,510
31484246,505
31494285,509
31504326,508
31514337,508
31524381,508
31534422,508
31544434,507
31554475,500
31564517,508
31574530,505
31584574,510
31594619,501
31604634,499
31614677,508
31624719,505
31634729,507
31644772,503
31654815,504
31664827,505
31674868,502
31684905,509
31694911,513
31704950,520
31714991,521
31725035,529
31735048,533
31745094,533
31755139,534
31765152,533
31775195,530
31785234,533
31795246,525
31805289,528
31815331,525
31825343,518
31835385,514
31845429,509
31855439,512
31865480,508
31875524,507
31885537,510
31895579,504
31905615,507
31915621,508
31925658,505
31935699,506
31945708,505
31955747,499
31965789,508
31975828,501
31985839,503
31995882,506
32005925,502
32015938,511
32025983,504
32036023,510
32046037,508
32056077,502
32066116,506
32076125,503
32086165,509
32096204,511
32106213,507
32116252,508
32126289,508
32136298,507
32146338,500
32156377,504
32166386,504
32176428,507
32186470,506
32196480,507
32206524,503
32216567,503
32226607,505
32236618,507
32246659,507
32256701,507
32266711,509
32276749,501
32286788,510
32296796,507
32306834,504
32316877,502
32326891,508
32336931,507
32346975,503
32356987,508
32367028,503
32377068,510
32387076,504
32397114,502
32407153,499
32417163,506
32427203,508
32437244,507
32447255,504
32457294,507
32467335,508
32477375,503
32487385,508
32497423,503
32507461,506
32517470,500
32527510,505
32537547,502
32547556,511
32557596,512
32567635,509
32577646,520
32587688,529
32597728,529
32607735,529
32617774,536
32627811,536
32637823,536
32647862,536
32657901,531
32667910,527
32677951,522
32687989,517
32697997,517
32708035,516
32718074,514
32728113,505
32738123,506
32748163,507
32758208,497
32768222,504
32778265,502
32788304,503
32798313,504
32808354,498
32818392,498
32828403,503
32838447,504
32848492,506
32858503,506
32868546,504
32878587,510
32888597,511
32898640,510
32908682,511
32918693,507
32928735,503
32938776,510
32948788,506
32958834,504
32968878,510
32978921,508
32988933,508
32998973,501
33009009,503
33019018,503
33029055,501
33039091,500
33049097,501
33059133,505
33069169,509
33079177,509
33089211,508
33099248,505
33109258,508
33119298,501
33129339,509
33139352,506
33149390,502
33159431,510
33169443,504
33179485,509
33189528,511
33199540,505
33209577,512
33219616,507
33229654,508
33239664,510
33249706,507
33259747,505
33269758,510
33279800,510
33289840,502
33299849,508
33309892,507
33319932,507
33329940,507
33339979,506
33350020,506
33360027,510
33370067,509
33380108,516
33390118,515
33400159,525
33410200,524
33420208,534
33430249,532
33440288,528
33450292,527
33460330,530
33470369,525
33480412,521
33490425,521
33500468,516
33510509,510
33520517,509
33530556,513
33540595,502
33550604,507
33560644,504
33570684,504
33580694,503
33590738,501
33600779,502
33610789,500
33620832,504
33630873,503
33640886,498
33650930,506
33660973,506
33670986,512
33681026,511
33691068,511
33701079,506
33711120,509
33721161,507
33731204,511
33741214,503
33751255,507
33761294,508
33771302,508
33781343,500
33791384,507
33801398,508
33811442,506
33821484,504
33831495,503
33841536,504
33851577,507
33861587,504
33871627,503
33881668,500
33891682,506
33901724,506
33911768,507
33921782,508
33931825,504
33941869,507
33951879,509
33961920,502
33971959,502
33982000,505
33992008,507
34002049,501
34012090,504
34022100,503
34032141,506
34042183,507
34052198,499
34062242,506
34072283,501
34082293,503
34092333,502
34102377,502
34112389,510
34122433,505
34132475,500
34142485,510
34152525,508
34162564,516
34172572,523
34182612,522
34192655,529
34202666,529
34212708,534
34222748,538
34232790,537
34242799,534
34252840,527
34262883,529
34272895,523
34282936,517
34292977,521
34302988,511
34313031,514
34323072,504
34333084,508
34343125,503
34353168,509
34363179,507
34373222,502
34383265,504
34393274,499
34403315,503
34413355,500
34423365,499
34433406,498
34443450,506
34453463,502
34463506,505
34473547,503
34483589,505
34493600,508
34503645,510
34513693,507
34523709,504
34533750,509
34543793,508
34553804,502
34563845,504
34573886,506
34583895,506
34593937,503
34603979,502
34613988,508
34624030,505
34634071,502
34644084,509
34654123,507
34664168,505
34674183,507
34684228,508
34694273,505
34704285,508
34714328,508
34724371,507
34734413,508
34744423,503
34754460,500
34764500,507
34774508,510
34784545,505
34794582,510
34804588,502
34814626,509
34824662,504
34834668,508
34844705,502
34854745,510
34864755,508
34874793,508
34884832,510
34894842,503
34904880,511
34914921,509
34924930,509
34934969,506
34945006,510
34955014,506
34965053,508
34975095,511
34985135,518
34995144,527
35005180,532
35015220,537
35025229,539
35035270,539
35045307,537
35055317,531
35065355,532
35075397,529
35085405,527
35095441,522
35105480,517
35115488,515
35125528,512
35135566,507
35145577,505
35155617,506
35165658,506
35175667,498
35185704,496
35195745,500
35205755,500
35215794,497
35225832,494
35235869,500
35245876,501
35255913,501
35265951,505
35275963,506
35286001,508
35296040,504
35306051,509
35316090,510
35326130,511
35336140,503
35346183,512
35356226,512
35366235,509
35376276,505
35386318,508
35396329,506
35406371,504
35416411,498
35426420,504
35436460,501
35446502,504
35456513,505
35466556,506
35476598,502
35486639,504
35496648,504
35506689,501
35516732,503
35526741,503
35536784,497
35546827,505
35556838,502
35566877,502
35576916,502
35586923,501
35596962,500
35607002,500
35617009,503
35627050,504
35637089,499
35647096,499
35657139,504
35667184,497
35677196,504
35687236,502
35697273,497
35707279,505
35717317,505
35727356,504
35737393,501
35747398,500
35757433,500
35767467,502
35777469,496
35787504,501
35797540,506
35807545,507
35817583,510
35827619,516
35837625,520
35847663,520
35857698,523
35867705,532
35877742,534
35887780,533
35897788,529
35907826,536
35917865,532
35927874,528
35937913,523
35947949,525
35957959,516
35968000,512
35978043,511
35988085,515
35998097,507
36008140,507
36018182,505
36028192,507
36038231,502
36048272,501
36058279,501
36068320,501
36078359,501
36088365,500
36098405,502
36108446,501
36118451,503
36128490,505
36138530,499
36148540,505
36158583,506
36168627,502
36178638,506
36188679,504
36198720,508
36208728,509
36218767,505
36228806,505
36238846,506
36248857,506
36258899,505
36268938,506
36278947,501
36288984,502
36299019,504
36309028,505
36319068,502
36329107,504
36339117,505
36349159,502
36359201,502
36369209,508
36379250,509
36389291,504
36399302,504
36409344,507
36419386,509
36429397,507
36439435,509
36449474,502
36459479,505
36469517,506
36479557,508
36489595,508
36499605,504
36509644,503
36519682,500
36529693,506
36539735,508
36549773,506
36559786,509
36569830,507
36579873,503
36589882,510
36599920,505
36609956,503
36619965,506
36630005,501
36640045,508
36650054,503
36660094,504
36670133,507
36680141,504
36690179,500
36700215,509
36710226,506
36720265,511
36730306,518
36740353,523
36750364,525
36760405,524
36770447,527
36780458,538
36790496,532
36800539,533
36810551,533
36820595,525
36830640,528
36840656,521
36850701,521
36860749,517
36870768,513
36880813,514
36890852,508
36900854,504
36910889,507
36920922,503
36930926,506
36940960,502
36950995,505
36961000,502
36971036,504
36981072,499
36991107,509
37001111,503
37011148,509
37021182,511
37031185,507
37041222,510
37051259,512
37061263,513
37071295,511
37081332,512
37091339,511
37101375,509
37111411,505
37121416,506
37131453,510
37141493,509
37151500,510
37161538,509
37171574,503
37181583,506
37191621,506
37201659,503
37211665,501
37221700,503
37231739,508
37241775,503
37251778,504
37261815,505
37271855,502
37281864,508
37291903,508
37301944,501
37311953,506
37321987,500
37332024,505
37342037,508
37352080,503
37362124,497
37372135,503
37382180,504
37392224,505
37402238,501
37412283,501
37422330,507
37432342,502
37442388,506
37452426,507
37462435,509
37472473,507
37482510,510
37492546,503
37502553,504
37512592,507
37522627,503
37532630,501
37542668,502
37552707,507
37562714,506
37572754,504
37582788,507
37592794,509
37602833,513
37612874,514
37622883,518
37632923,519
37642962,526
37652968,533
37663003,529
37673039,536
37683047,535
37693089,532
37703129,532
37713138,523
37723181,522
37733223,519
37743264,515
37753272,509
37763312,511
37773350,506
37783356,507
37793393,500
37803433,501
37813443,499
37823486,506
37833527,503
37843539,506
37853580,504
37863622,502
37873634,498
37883676,499
37893716,506
37903725,501
37913769,506
37923813,511
37933826,511
37943869,511
37953913,507
37963926,508
37973967,505
37984012,506
37994055,502
38004067,501
38014111,505
38024153,502
38034165,500
38044205,505
38054247,507
38064259,503
38074301,507
38084343,508
38094354,503
38104397,500
38114440,507
38124454,506
38134499,503
38144543,511
38154553,502
38164598,506
38174642,503
38184654,504
38194697,504
38204742,505
38214751,508
38224794,504
38234837,506
38244880,508
38254893,500
38264934,505
38274976,504
38284988,506
38295028,509
38305071,504
38315085,504
38325126,498
38335170,507
38345181,503
38355221,508
38365260,504
38375272,501
38385314,508
38395356,508
38405364,505
38415401,500
38425438,510
38435447,503
38445490,508
38455529,506
38465535,508
38475578,515
38485623,524
38495666,527
38505678,529
38515722,535
38525765,533
38535772,532
38545812,530
38555856,531
38565867,522
38575909,525
38585949,525
38595959,514
38606001,518
38616042,507
38626051,509
38636089,502
38646131,508
38656141,504
38666180,500
38676215,503
38686223,505
38696263,502
38706304,503
38716316,503
38726358,504
38736398,503
38746440,506
38756454,505
38766495,505
38776533,510
38786538,507
38796573,511
38806611,505
38816619,504
38826658,509
38836695,505
38846698,503
38856734,509
38866773,506
38876779,504
38886819,500
38896856,501
38906860,501
38916896,504
38926932,504
38936939,507
38946976,501
38957011,509
38967015,505
38977051,501
38987089,506
38997126,500
39007132,506
39017169,507
39027209,506
39037217,508
39047251,507
39057288,504
39067292,500
39077330,501
39087367,501
39097373,508
39107410,502
39117447,506
39127453,510
39137489,507
39147526,501
39157533,509
39167568,510
39177605,501
39187612,506
39197649,506
39207683,506
39217688,502
39227722,503
39237758,505
39247796,512
39257804,511
39267843,512
39277882,521
39287889,522
39297928,526
39307965,532
39317968,526
39328003,535
39338039,534
39348043,531
39358077,528
39368111,524
39378114,516
39388147,512
39398180,519
39408180,512
39418212,506
39428245,502
39438248,506
39448281,505
39458319,503
39468325,499
39478360,497
39488395,500
39498430,501
39508434,503
39518471,504
39528508,507
39538512,501
39548543,506
39558579,508
39568583,510
39578619,508
39588654,509
39598660,511
39608696,511
39618733,512
39628737,512
39638774,510
39648813,503
39658820,509
39668860,509
39678897,508
39688902,499
39698941,509
39708978,506
39718985,507
39729025,508
39739065,506
39749101,506
39759107,505
39769143,508
39779181,503
39789189,503
39799228,502
39809269,498
39819277,504
39829318,500
39839362,499
39849374,505
39859417,505
39869459,506
39879471,501
39889512,508
39899550,507
39909559,509
39919598,500
39929639,507
39939651,508
39949691,508
39959732,508
39969741,510
39979781,504
39989824,512
39999867,512
40009877,511
40019918,514
40029957,526
40039966,529
40050003,528
40060042,534
40070050,531
40080090,530
40090131,533
40100142,528
40110182,531
40120222,528
40130232,520
40140274,513
40150316,515
40160328,513
40170371,505
40180410,509
40190423,502
40200466,504
40210507,506
40220518,506
40230562,499
40240604,497
40250644,499
40260650,503
40270691,501
40280733,503
40290744,499
40300787,500
40310827,508
40320833,502
40330872,510
40340914,509
40350924,508
40360963,504
40371000,504
40381006,507
40391045,512
40401083,508
40411091,509
40421125,507
40431163,508
40441172,501
40451210,509
40461247,504
40471255,508
40481292,499
40491330,503
40501365,505
40511371,506
40521413,508
40531454,501
40541463,499
40551503,505
40561547,507
40571558,505
40581604,502
40591645,503
40601653,508
40611693,507
40621729,504
40631735,510
40641767,508
40651800,507
40661804,506
40671842,508
40681873,506
40691880,507
40701917,504
40711953,506
40721959,507
40731994,508
40742028,511
40752061,506
40762063,513
40772098,512
40782132,517
40792131,528
40802165,522
40812199,528
40822203,529
40832239,533
40842276,531
40852281,529
40862312,529
40872347,519
40882353,516
40892391,520
40902432,516
40912442,515
40922483,511
40932525,505
40942533,505
40952570,502
40962608,505
40972616,499
40982655,504
40992692,503
41002727,504
41012732,498
41022769,499
41032810,503
41042821,505
41052858,501
41062894,505
41072903,506
41082942,509
41092982,507
41102991,511
41113033,512
41123076,510
41133083,507
41143127,509
41153168,510
41163176,504
41173218,506
41183259,508
41193269,503
41203306,509
41213343,506
41223356,509
41233397,500
41243437,501
41253473,500
41263479,507
41273516,503
41283554,509
41293560,503
41303597,506
41313638,508
41323643,497
41333681,506
41343715,504
41353720,507
41363758,507
41373796,505
41383802,504
41393839,503
41403876,503
41413884,508
41423925,509
41433967,508
41443981,508
41454028,508
41464073,506
41474087,508
41484129,506
41494167,506
41504206,504
41514213,511
41524251,511
41534290,517
41544298,521
41554337,527
41564375,530
41574382,531
41584420,529
41594458,532
41604469,532
41614509,532
41624550,523
41634558,528
41644603,524
41654647,515
41664660,516
41674703,511
41684743,511
41694755,513
41704791,509
41714829,501
41724838,504
41734872,507
41744908,497
41754943,503
41764948,502
41774983,499
41785017,504
41795020,503
41805052,503
41815086,501
41825093,504
41835131,508
41845169,510
41855177,509
41865213,509
41875252,506
41885260,509
41895299,508
41905335,508
41915336,509
41925371,509
41935412,503
41945415,503
41955452,507
41965490,506
41975497,506
41985531,501
41995568,508
42005606,498
42015612,506
42025655,506
42035691,503
42045697,500
42055735,503
42065773,507
42075781,507
42085818,505
42095853,508
42105858,508
42115893,509
42125928,504
42135936,504
42145974,507
42156012,502
42166017,506
42176053,501
42186089,505
42196090,503
42206126,502
42216162,503
42226169,508
42236211,509
42246252,508
42256290,499
42266295,503
42276334,508
42286369,509
42296374,510
42306411,510
42316454,515
42326464,518
42336510,522
42346558,532
42356575,528
42366623,526
42376668,532
42386678,535
42396717,535
42406754,531
42416763,531
42426802,517
42436838,513
42446844,516
42456881,518
42466919,516
42476928,512
42486970,506
42497011,510
42507052,508
42517061,506
42527103,502
42537143,506
42547150,503
42557188,505
42567227,500
42577237,499
42587276,507
42597316,501
42607324,502
42617364,511
42627400,510
42637406,502
42647445,505
42657485,509
42667494,510
42677531,504
42687570,503
42697578,503
42707615,499
42717654,503
42727667,504
42737710,508
42747750,504
42757795,508
42767806,504
42777850,501
42787893,506
42797906,501
42807950,504
42817992,507
42828004,506
42838045,510
42848087,501
42858098,508
42868135,508
42878174,502
42888181,504
42898221,502
42908265,509
42918278,508
42928319,508
42938363,508
42948378,502
42958422,507
42968466,507
42978480,504
42988526,509
42998571,508
43008617,504
43018628,505
43028670,506
43038713,504
43048726,501
43058772,508
43068821,508
43078836,508
43088880,502
43098925,503
43108941,509
43118986,508
43129029,507
43139043,506
43149088,509
43159129,517
43169141,524
43179185,522
43189227,527
43199236,535
43209278,533
43219324,530
43229346,531
43239402,529
43249456,525
43259512,521
43269532,525
43279581,518
43289631,510
43299648,514
43309694,513
43319738,509
43329748,508
43339790,508
43349839,506
43359859,506
43369908,499
43379960,502
43389977,504
43400026,500
43410073,500
43420088,498
43430134,499
43440182,503
43450201,510
43460250,510
43470296,492
43480311,509
43490355,510
43500400,508
43510447,505
43520466,508
43530513,504
43540561,507
43550582,506
43560633,506
43570685,505
43580704,499
43590751,508
43600799,505
43610818,503
43620864,503
43630908,507
43640923,503
43650967,505
43661011,506
43671025,503
43681067,505
43691110,505
43701125,508
43711167,502
43721213,507
43731232,507
43741279,502
43751325,500
43761373,501
43771394,500
43781443,508
43791489,505
43801503,504
43811550,511
43821594,507
43831609,509
43841657,510
43851705,507
43861722,508
43871770,501
43881816,508
43891832,508
43901880,505
43911927,508
43921941,503
43931988,502
43942034,509
43952048,508
43962091,508
43972135,509
43982147,509
43992191,507
44002233,516
44012279,520
44022296,520
44032342,524
44042391,527
44052409,532
44062458,531
44072506,530
44082522,526
44092567,529
44102616,527
44112634,525
44122680,518
44132727,520
44142744,517
44152793,514
44162839,511
44172858,508
44182905,510
44192949,509
44202960,508
44213002,499
44223042,505
44233052,502
44243093,497
44253135,500
44263178,500
44273191,503
44283231,500
44293276,510
44303289,507
44313334,510
44323380,504
44333397,509
44343445,506
44353490,502
44363507,506
44373555,510
44383604,507
44393619,506
44403663,509
44413708,499
44423729,502
44433787,506
44443843,507
44453869,509
44463924,499
44473975,507
44483990,507
44494036,506
44504086,501
44514133,506
44524152,507
44534200,505
44544245,508
44554259,504
44564303,498
44574349,509
44584367,505
44594410,506
44604451,508
44614463,510
44624507,507
44634550,508
44644565,506
44654609,506
44664655,508
44674668,501
44684713,510
44694756,508
44704770,502
44714814,508
44724858,504
44734873,503
44744921,499
44754967,510
44765011,505
44775025,504
44785069,514
44795110,511
44805124,520
44815169,526
44825215,524
44835231,533
44845276,531
44855323,534
44865337,531
44875382,529
44885428,530
44895444,527
44905491,519
44915534,522
44925549,519
44935595,514
44945638,512
44955649,507
44965692,511
44975736,509
44985748,500
44995788,504
45005830,503
45015873,500
45025886,501
45035929,504
45045975,501
45055989,502
45066033,502
45076074,502
45086086,504
45096128,508
45106170,502
45116179,506
45126223,509
45136265,506
45146280,506
45156325,510
45166370,510
45176384,502
45186427,509
45196470,506
45206483,499
45216525,507
45226565,505
45236574,507
45246612,499
45256650,508
45266690,506
45276701,507
45286745,502
45296784,507
45306791,499
45316834,508
45326880,501
45336893,508
45346938,509
45356980,509
45366997,500
45377042,500
45387086,508
45397100,501
45407145,504
45417187,502
45427200,505
45437242,502
45447286,507
45457298,506
45467337,503
45477380,510
45487393,504
45497434,507
45507477,508
45517522,506
45527534,505
45537578,507
45547624,507
45557636,509
45567680,508
45577720,503
45587729,510
45597773,509
45607818,514
45617831,514
45627874,514
45637915,525
45647928,526
45657973,530
45668021,531
45678039,535
45688086,532
45698132,530
45708149,531
45718196,531
45728241,526
45738255,520
45748298,522
45758339,518
45768379,516
45778389,507
45788429,507
45798472,508
45808484,509
45818528,505
45828568,502
45838581,499
45848624,502
45858669,501
45868678,500
45878716,501
45888757,501
45898767,506
45908810,501
45918852,505
45928865,504
45938907,508
45948953,502
45958968,510
45969011,509
45979056,506
45989072,506
45999118,507
46009163,504
46019211,505
46029224,502
46039271,499
46049320,506
46059340,504
46069393,505
46079442,503
46089462,508
46099510,504
46109557,506
46119574,506
46129619,508
46139663,503
46149678,509
46159722,505
46169766,505
46179781,509
46189826,505
46199873,503
46209888,506
46219938,506
46229982,505
46239995,506
46250039,510
46260083,504
46270128,507
46280142,506
46290187,503
46300230,506
46310241,508
46320286,505
46330331,504
46340344,504
46350386,500
46360428,501
46370442,504
46380487,507
46390532,508
46400548,503
46410593,502
46420637,507
46430650,507
46440693,508
46450737,507
46460752,500
46470798,502
46480844,512
46490858,510
46500901,515
46510945,519
46520985,520
46530996,527
46541039,522
46551082,532
46561097,533
46571144,532
46581187,534
46591199,528
46601243,525
46611283,526
46621291,520
46631330,518
46641374,514
46651387,513
46661430,509
46671469,510
46681479,503
46691522,502
46701568,506
46711583,503
46721627,504
46731674,503
46741687,506
46751733,505
46761780,504
46771825,505
46781839,502
46791885,502
46801932,504
46811950,502
46822002,507
46832047,507
46842059,512
46852102,507
46862146,512
46872159,512
46882198,506
46892241,508
46902255,511
46912300,508
46922346,504
46932360,509
46942405,508
46952443,508
46962454,507
46972498,509
46982541,505
46992552,505
47002594,506
47012631,507
47022673,502
47032684,506
47042725,504
47052767,509
47062777,502
47072817,506
47082856,508
47092862,505
47102906,507
47112951,508
47122966,510
47133008,507
47143051,506
47153066,509
47163108,506
47173152,506
47183163,507
47193205,501
47203246,502
47213259,508
47223298,509
47233342,504
47243359,509
47253406,502
47263447,502
47273491,507
47283503,505
47293544,506
47303583,509
47313591,505
47323629,503
47333670,507
47343684,509
47353727,513
47363771,522
47373786,527
47383827,527
47393869,533
47403880,526
47413924,527
47423968,534
47433979,531
47444017,531
47454058,522
47464069,524
47474111,516
47484154,518
47494167,515
47504207,511
47514248,504
47524295,509
47534313,506
47544364,508
47554415,499
47564434,502
47574483,506
47584531,504
47594548,498
47604599,502
47614646,504
47624657,507
47634698,510
47644742,507
47654753,507
47664799,509
47674839,508
47684850,503
47694892,512
47704933,506
47714945,509
47724984,506
47735026,509
47745038,509
47755080,506
47765119,505
47775158,501
47785169,507
47795211,503
47805252,505
47815262,506
47825301,504
47835341,504
47845351,504
47855392,505
47865434,498
47875446,506
47885487,497
47895527,504
47905539,499
47915580,500
47925620,509
47935629,508
47945669,499
47955707,506
47965718,504
47975761,505
47985806,508
47995818,508
48005859,509
48015901,503
48025943,508
48035955,502
48045999,503
48056041,508
48066054,508
48076097,504
48086138,509
48096149,506
48106191,501
48116234,507
48126248,501
48136291,499
48146334,506
48156343,504
48166386,506
48176432,504
48186444,507
48196488,507
48206531,507
48216541,510
48226582,520
48236619,519
48246626,525
48256663,530
48266703,534
48276741,531
48286749,530
48296790,524
48306834,527
48316850,528
48326895,524
48336939,520
48346947,512
48356989,516
48367030,514
48377042,509
48387082,512
48397124,505
48407133,510
48417173,499
48427212,499
48437219,507
48447258,502
48457300,501
48467313,505
48477358,502
48487402,506
48497415,508
48507455,506
48517494,510
48527534,509
48537547,509
48547590,512
48557635,508
48567649,515
48577694,507
48587739,510
48597754,508
48607798,510
48617843,503
48627860,504
48637905,503
48647951,507
48657967,504
48668015,509
48678063,506
48688080,507
48698126,499
48708173,505
48718190,504
48728236,505
48738282,500
48748294,501
48758338,507
48768385,503
48778431,505
48788445,508
48798488,510
48808532,508
48818548,504
48828593,510
48838636,504
48848649,508
48858696,510
48868743,510
48878758,508
48888804,508
48898848,507
48908862,509
48918907,510
48928948,506
48938958,508
48948998,507
48959034,506
48969043,502
48979084,508
48989126,509
48999139,515
49009182,516
49019223,525
49029267,527
49039281,526
49049325,531
49059367,534
49069376,536
49079420,534
49089461,525
49099470,527
49109512,521
49119551,519
49129559,522
49139598,519
49149638,514
49159647,515
49169686,515
49179724,508
49189733,511
49199774,510
49209813,510
49219821,509
49229863,508
49239904,500
49249915,502
49259956,507
49269998,502
49280039,501
49290049,504
49300090,507
49310130,507
49320141,505
49330178,503
49340218,504
49350228,503
49360265,506
49370302,504
49380309,509
49390344,504
49400382,505
49410389,500
49420422,508
49430453,509
49440457,498
49450490,502
49460525,503
49470528,503
49480560,507
49490592,503
49500595,503
49510629,499
49520666,506
49530703,506
49540713,508
49550754,508
49560794,500
49570806,505
49580846,508
49590887,506
49600898,506
49610941,499
49620984,501
49630995,506
49641032,506
49651073,504
49661086,507
49671129,503
49681172,509
49691186,509
49701229,506
49711271,504
49721281,506
49731323,508
49741362,508
49751371,506
49761413,508
49771452,510
49781492,508
49791502,513
49801542,518
49811580,518
49821589,524
49831626,527
49841664,529
49851674,531
49861713,532
49871752,524
49881761,529
49891802,523
49901842,525
49911852,521
49921890,520
49931928,518
49941937,518
49951976,511
49962016,513
49972025,507
49982065,508
49992102,505
50002111,503
50012151,507
50022191,498
50032233,497
50042242,504
50052283,499
50062322,503
50072333,509
50082375,508
50092416,509
50102426,508
50112467,508
50122508,509
50132519,506
50142563,508
50152608,512
50162620,511
50172662,508
50182705,504
50192716,508
50202759,505
50212804,501
50222816,502
50232859,504
50242902,499
50252913,504
50262955,508
50273000,500
50283045,500
50293061,505
50303107,509
50313152,507
50323160,500
50333202,509
50343249,508
50353263,508
50363306,501
50373348,500
50383360,505
50393404,510
50403454,505
50413469,504
50423519,507
50433564,509
50443583,512
50453626,510
50463667,507
50473680,505
50483721,504
50493763,508
50503775,509
50513817,509
50523857,508
50533900,509
50543910,510
50553950,515
50563993,512
50574005,516
50584050,516
50594094,523
50604110,521
50614152,532
50624195,532
50634208,532
50644250,527
50654293,522
50664308,526
50674352,518
50684399,516
50694411,514
50704458,513
50714505,508
50724516,511
50734559,510
50744602,509
50754614,504
50764659,505
50774704,505
50784750,501
50794763,502
50804805,502
50814846,503
50824856,506
50834897,499
50844937,504
50854945,508
50864986,505
50875026,501
50885035,506
50895074,509
50905115,510
50915125,504
50925168,507
50935213,505
50945227,502
50955270,505
50965313,502
50975326,510
50985372,506
50995416,510
51005431,507
51015474,505
51025518,501
51035563,506
51045578,507
51055623,502
51065667,507
51075679,506
51085720,499
51095764,502
51105774,507
51115816,503
51125857,503
51135868,502
51145912,502
51155961,509
51165976,508
51176022,508
51186062,505
51196070,507
51206111,507
51216154,501
51226166,502
51236205,500
51246245,510
51256255,502
51266295,504
51276336,506
51286375,508
51296382,502
51306420,501
51316460,510
51326471,511
51336509,513
51346551,514
51356564,521
51366605,527
51376646,525
51386657,526
51396699,533
51406742,534
51416752,534
51426793,531
51436836,530
51446849,526
51456893,525
51466935,515
51476944,515
51486985,511
51497025,512
51507035,509
51517074,509
51527115,506
51537156,500
51547167,504
51557204,503
51567242,503
51577248,500
51587287,504
51597332,500
51607349,503
51617395,506
51627441,508
51637458,506
51647499,508
51657539,505
51667544,510
51677584,507
51687624,503
51697633,506
51707672,504
51717715,508
51727727,505
51737767,506
51747808,503
51757817,507
51767857,506
51777897,507
51787939,499
51797952,499
51807996,502
51818038,503
51828053,508
51838099,502
51848142,501
51858156,499
51868199,503
51878243,504
51888257,509
51898303,502
51908347,510
51918361,503
51928405,503
51938448,504
51948459,501
51958502,499
51968546,499
51978557,510
51988600,507
51998643,505
52008657,508
52018700,502
52028746,506
52038791,503
52048807,505
52058851,502
52068894,505
52078910,508
52088955,505
52098997,506
52109008,504
52119049,509
52129089,501
52139100,508
52149142,505
52159188,505
52169201,512
52179246,516
52189294,518
52199307,523
52209350,528
52219394,529
52229410,530
52239452,525
52249496,529
52259516,526
52269568,522
52279618,524
52289666,512
52299681,517
52309731,514
52319779,510
52329795,509
52339841,508
52349882,505
52359893,504
52369934,505
52379977,506
52389991,502
52400035,496
52410075,503
52420087,503
52430131,498
52440179,503
52450194,499
52460239,504
52470283,508
52480294,508
52490333,503
52500375,502
52510388,509
52520433,512
52530479,511
52540526,507
52550542,501
52560589,504
52570637,506
52580652,508
52590695,503
52600739,503
52610752,503
52620794,509
52630838,504
52640852,505
52650896,506
52660941,506
52670952,507
52680995,501
52691039,507
52701051,506
52711094,516
52721137,511
52731146,508
52741183,505
52751220,506
52761228,510
52771266,502
52781307,505
52791348,507
52801357,506
52811395,508
52821434,508
52831445,507
52841489,508
52851537,507
52861547,509
52871586,506
52881623,503
52891634,508
52901677,506
52911719,507
52921726,506
52931764,511
52941802,512
52951811,512
52961851,517
52971893,513
52981903,522
52991946,525
53001985,528
53011993,531
53022034,532
53032075,530
53042118,532
53052132,528
53062172,523
53072215,521
53082228,517
53092271,516
53102309,514
53112321,515
53122361,511
53132401,510
53142410,504
53152443,506
53162477,503
53172484,509
53182524,504
53192568,503
53202582,497
53212628,497
53222672,507
53232685,507
53242731,505
53252777,504
53262791,506
53272840,505
53282886,508
53292930,511
53302942,507
53312985,509
53323030,509
53333044,509
53343088,506
53353132,504
53363142,509
53373185,508
53383229,504
53393240,501
53403283,505
53413324,505
53423337,505
53433381,507
53443425,499
53453437,508
53463483,501
53473526,505
53483538,509
53493585,507
53503630,505
53513646,503
53523692,503
53533737,509
53543781,508
53553796,504
53563843,509
53573888,505
53583902,506
53593947,509
53603993,502
53614008,503
53624053,507
53634102,510
53644120,503
53654172,510
53664223,508
53674244,506
53684294,501
53694341,507
53704361,505
53714408,504
53724454,510
53734468,513
53744511,507
53754557,516
53764572,520
53774621,525
53784667,528
53794714,531
53804731,532
53814780,536
53824827,533
53834843,533
53844887,533
53854932,527
53864946,523
53874992,520
53885037,520
53895054,513
53905098,511
53915141,512
53925150,507
53935188,510
53945230,509
53955240,501
53965284,502
53975330,507
53985343,502
53995386,504
54005429,503
54015441,503
54025482,508
54035526,510
54045569,505
54055581,508
54065625,504
54075668,510
54085684,508
54095732,503
54105777,505
54115795,510
54125841,508
54135889,507
54145905,510
54155945,504
54165984,507
54175992,505
54186030,507
54196070,506
54206081,503
54216123,507
54226164,506
54236175,508
54246216,503
54256257,503
54266267,508
54276308,505
54286351,508
54296391,508
54306401,507
54316443,506
54326484,507
54336494,508
54346531,501
54356573,504
54366583,506
54376626,506
54386674,507
54396690,505
54406737,508
54416780,507
54426793,506
54436838,508
54446882,505
54456894,503
54466935,508
54476978,502
54486991,503
54497033,504
54507081,504
54517097,504
54527144,502
54537194,506
54547243,507
54557261,514
54567309,517
54577358,518
54587379,521
54597431,528
54607485,523
54617507,527
54627563,530
54637616,533
54647638,527
54657684,528
54667732,526
54677746,519
54687791,517
54697835,517
54707848,514
54717894,512
54727939,509
54737955,512
54747998,508
54758040,504
54768053,503
54778099,503
54788145,500
54798193,506
54808210,508
54818257,506
54828300,500
54838313,509
54848359,502
54858404,499
54868417,505
54878460,503
54888504,509
54898518,505
54908560,504
54918603,511
54928615,502
54938659,506
54948702,508
54958714,508
54968755,503
54978798,503
54988809,504
54998853,502
55008895,509
55018907,504
55028952,505
55038995,503
55049038,505
55059055,508
55069101,504
55079146,506
55089162,508
55099211,502
55109257,508
55119273,503
55129321,510
55139365,503
55149380,504
55159428,507
55169475,509
55179489,510
55189534,503
55199581,502
55209597,509
55219644,509
55229692,504
55239708,510
55249757,505
55259800,505
55269812,509
55279854,506
55289900,499
55299948,501
55309965,507
55320011,503
55330062,511
55340078,508
55350125,513
55360170,514
55370183,520
55380224,522
55390269,522
55400284,524
55410327,528
55420371,526
55430385,526
55440429,520
55450475,525
55460490,518
55470535,520
55480576,517
55490589,514
55500633,514
55510677,508
55520692,511
55530735,508
55540776,505
55550822,500
55560834,503
55570878,501
55580923,507
55590934,503
55600978,507
55611022,506
55621032,504
55631075,506
55641119,508
55651134,504
55661179,506
55671222,505
55681233,510
55691279,504
55701325,510
55711341,510
55721390,508
55731436,503
55741450,506
55751496,501
55761544,504
55771560,500
55781604,507
55791652,500
55801698,507
55811713,498
55821761,501
55831806,499
55841817,503
55851861,506
55861902,504
55871915,505
55881958,500
55892002,504
55902019,504
55912066,505
55922109,502
55932123,509
55942167,503
55952210,501
55962223,508
55972270,510
55982312,503
55992327,504
56002374,509
56012421,502
56022437,510
56032482,506
56042523,511
56052570,510
56062586,505
56072632,506
56082675,511
56092686,507
56102729,510
56112774,511
56122785,518
56132827,520
56142871,525
56152886,526
56162929,527
56172973,529
56182988,524
56193030,529
56203073,528
56213085,527
56223128,524
56233167,522
56243177,520
56253215,515
56263255,510
56273267,514
56283312,512
56293356,507
56303398,504
56313413,506
56323458,506
56333499,505
56343509,500
56353549,504
56363589,501
56373602,505
56383647,507
56393692,504
56403707,504
56413755,499
56423805,500
56433824,503
56443866,506
56453909,506
56463922,509
56473964,501
56484005,510
56494015,505
56504054,509
56514094,508
56524102,510
56534144,508
56544189,506
56554229,500
56564242,507
56574284,505
56584326,506
56594340,502
56604378,503
56614417,505
56624426,504
56634467,504
56644507,500
56654516,507
56664559,506
56674600,500
56684612,509
56694657,505
56704701,506
56714716,500
56724759,504
56734801,508
56744812,500
56754859,501
56764903,503
56774916,503
56784961,509
56795007,506
56805050,511
56815064,510
56825107,511
56835148,512
56845159,511
56855203,523
56865246,525
56875262,522
56885309,530
56895354,529
56905368,533
56915412,524
56925456,523
56935468,525
56945518,523
56955568,517
56965589,519
56975634,519
56985674,509
56995679,507
57005717,504
57015760,509
57025771,520
57035816,510
57045859,503
57055900,501
57065913,499
57075957,503
57085998,504
57096008,496
57106054,499
57116098,503
57126113,496
57136156,505
57146197,505
57156209,505
57166247,504
57176288,507
57186298,508
57196338,506
57206377,507
57216389,505
57226423,511
57236460,508
57246471,505
57256511,505
57266553,504
57276567,503
57286608,505
57296649,504
57306691,506
57316700,506
57326738,502
57336779,505
57346787,506
57356827,507
57366870,506
57376882,503
57386925,506
57396966,504
57406976,502
57417015,499
57427055,504
57437064,500
57447101,507
57457142,506
57467156,502
57477199,506
57487240,504
57497252,499
57507293,506
57517337,506
57527353,502
57537397,510
57547445,511
57557488,508
57567500,515
57577544,519
57587588,515
57597601,520
57607645,520
57617687,524
57627701,527
57637746,525
57647794,528
57657812,519
57667860,520
57677903,518
57687919,519
57697963,513
57708009,507
57718025,512
57728070,512
57738114,504
57748129,509
57758176,499
57768221,503
57778236,501
57788282,504
57798329,503
57808376,503
57818387,504
57828430,505
57838473,499
57848486,503
57858529,506
57868575,504
57878587,507
57888630,506
57898673,508
57908685,507
57918725,508
57928766,508
57938780,507
57948825,508
57958867,505
57968881,510
57978923,506
57988968,499
57998978,505
58009019,506
58019061,500
58029074,507
58039113,505
58049153,505
58059195,503
58069205,506
58079243,507
58089281,501
58099281,499
58109320,506
58119358,506
58129366,505
58139406,506
58149445,504
58159454,508
58169492,507
58179533,507
58189544,506
58199583,504
58209625,508
58219637,508
58229680,500
58239721,509
58249732,502
58259777,507
58269820,502
58279835,508
58289881,510
58299927,509
58309970,503
58319984,509
58330028,510
58340074,508
58350088,514
58360131,519
58370172,522
58380182,522
58390224,527
58400267,524
58410281,519
58420323,521
58430367,520
58440377,521
58450417,520
58460459,514
58470470,517
58480512,507
58490551,505
58500557,513
58510596,512
58520636,510
58530644,505
58540684,506
58550729,507
58560775,507
58570783,504
58580824,505
58590866,506
58600877,509
58610918,506
58620960,508
58630975,506
58641018,504
58651060,502
58661069,507
58671115,510
58681158,508
58691172,503
58701219,509
58711261,506
58721274,502
58731318,505
58741369,509
58751391,506
58761439,508
58771478,509
58781492,507
58791536,507
58801582,509
58811625,509
58821635,508
58831676,500
58841717,509
58851729,508
58861771,503
58871813,503
58881824,510
58891865,510
58901910,503
58911927,511
58921975,510
58932023,510
58942039,508
58952087,508
58962134,509
58972150,509
58982198,510
58992243,508
59002256,508
59012299,509
59022344,511
59032360,509
59042407,508
59052454,509
59062500,510
59072517,508
59082564,506
59092613,506
59102632,509
59112680,509
59122725,504
59132739,505
59142785,503
59152832,509
59162846,509
59172893,505
59182939,512
59192953,514
59202998,522
59213042,520
59223054,525
59233094,528
59243134,528
59253146,528
59263188,528
59273228,520
59283239,524
59293284,516
59303332,522
59313382,519
59323399,516
59333441,508
59343484,513
59353500,504
59363545,506
59373591,512
59383606,509
59393653,510
59403699,509
59413714,508
59423759,509
59433804,508
59443818,509
59453858,506
59463900,511
59473914,509
59483961,508
59494006,512
59504020,512
59514068,508
59524112,506
59534127,504
59544169,513
59554210,512
59564253,504
59574269,512
59584315,510
59594360,512
59604374,510
59614419,511
59624465,511
59634478,505
59644526,508
59654573,512
59664588,501
59674634,507
59684680,511
59694699,507
59704748,509
59714794,509
59724809,510
59734858,506
59744908,508
59754923,501
59764970,508
59775019,502
59785037,507
59795084,508
59805131,511
59815180,510
59825195,503
59835246,510
59845293,507
59855310,507
59865360,508
59875407,507
59885422,502
59895469,507
59905517,505
59915526,510
59925566,504
59935607,508
59945622,506
59955668,510
59965712,507
59975727,505
59985771,506
59995816,502
60005834,509
60015882,510
60025931,516
60035947,519
60045993,515
60056038,521
60066083,525
60076104,522
60086155,524
60096200,530
60106213,525
60116258,528
60126308,518
60136328,518
60146382,520
60156428,511
60166442,517
60176488,515
60186532,511
60196549,510
60206594,502
60216643,506
60226660,499
60236705,507
60246747,505
60256760,499
60266804,505
60276848,507
60286864,508
60296909,509
60306955,510
60317000,506
60327013,512
60337055,509
60347097,509
60357111,508
60367154,509
60377196,513
60387211,510
60397257,502
60407303,510
60417316,504
60427358,508
60437402,503
60447414,511
60457456,510
60467499,499
60477509,507
60487551,500
60497592,508
60507604,500
60517645,504
60527689,509
60537702,508
60547748,500
60557791,507
60567837,508
60577851,506
60587893,500
60597934,508
60607946,504
60617991,509
60628036,506
60638050,504
60648095,505
60658140,506
60668153,509
60678196,506
60688239,502
60698250,507
60708293,504
60718341,508
60728358,510
60738405,504
60748454,500
60758467,502
60768510,503
60778556,505
60788570,512
60798619,512
60808664,507
60818713,509
60828731,519
60838779,519
60848825,525
60858841,524
60868889,528
60878936,527
60888953,528
60899001,525
60909048,519
60919066,519
60929116,516
60939166,512
60949185,515
60959234,510
60969283,512
60979301,510
60989346,513
60999391,511
61009406,507
61019451,503
61029495,507
61039508,506
61049553,501
61059594,505
61069637,503
61079649,505
61089688,501
61099734,508
61109747,505
61119790,502
61129833,502
61139839,508
61149881,509
61159923,505
61169933,512
61179977,505
61190022,504
61200038,510
61210085,507
61220133,507
61230150,508
61240199,506
61250245,507
61260257,508
61270298,508
61280342,505
61290357,508
61300401,502
61310445,508
61320489,500
61330503,499
61340548,508
61350593,508
61360606,507
61370651,505
61380696,503
61390710,503
61400757,508
61410804,509
61420822,507
61430871,501
61440919,500
61450934,508
61460985,509
61471037,507
61481057,510
61491106,507
61501153,505
61511173,506
61521219,509
61531265,506
61541281,503
61551328,506
61561379,502
61571426,508
61581441,507
61591486,509
61601533,510
61611549,508
61621595,511
61631644,515
61641660,513
61651707,525
61661749,517
61671767,527
61681816,531
61691864,531
61701883,527
61711932,525
61721980,527
61731999,529
61742049,519
61752100,521
61762117,518
61772164,513
61782211,515
61792228,507
61802276,505
61812322,510
61822365,510
61832383,501
61842429,505
61852476,508
61862491,504
61872535,502
61882584,506
61892600,508
61902649,505
61912698,508
61922718,507
61932767,510
61942818,502
61952837,510
61962883,504
61972932,509
61982949,511
61992994,511
62003041,509
62013057,510
62023103,502
62033151,510
62043168,504
62053213,499
62063261,507
62073308,508
62083326,507
62093375,508
62103424,506
62113441,500
62123490,499
62133537,505
62143552,504
62153595,502
62163639,502
62173656,505
62183701,507
62193747,500
62203762,507
62213809,507
62223854,508
62233869,504
62243914,507
62253959,501
62263973,505
62274022,507
62284068,506
62294082,508
62304129,507
62314176,506
62324220,505
62334234,503
62344285,505
62354336,507
62364356,505
62374403,503
62384449,504
62394465,506
62404509,507
62414555,506
62424566,502
62434608,507
62444649,508
62454661,503
62464705,508
62474753,506
62484771,508
62494814,512
62504858,517
62514872,511
62524914,520
62534957,526
62544970,523
62555013,532
62565057,527
62575102,528
62585115,522
62595158,524
62605204,524
62615220,520
62625262,513
62635305,518
62645318,517
62655361,511
62665404,512
62675415,508
62685457,502
62695499,507
62705515,506
62715558,507
62725599,503
62735612,505
62745655,506
62755697,505
62765708,506
62775749,505
62785793,506
62795808,510
62805854,503
62815900,505
62825944,510
62835957,508
62845997,508
62856036,504
62866045,509
62876086,510
62886127,505
62896139,506
62906183,503
62916227,509
62926239,510
62936279,506
62946317,504
62956324,509
62966366,507
62976408,507
62986422,502
62996465,505
63006507,506
63016517,508
63026558,505
63036603,510
63046618,511
63056659,503
63066698,500
63076742,507
63086759,507
63096806,508
63106856,507
63116873,508
63126919,509
63136963,507
63146977,508
63157023,505
63167068,505
63177083,503
63187127,503
63197171,509
63207185,508
63217228,506
63227271,503
63237284,507
63247329,503
63257374,501
63267385,509
63277428,510
63287469,506
63297483,508
63307526,511
63317568,504
63327612,510
63337625,509
63347667,511
63357710,511
63367720,520
63377764,520
63387808,523
63397824,527
63407871,523
63417914,523
63427928,525
63437976,528
63448024,526
63458038,519
63468085,517
63478132,512
63488150,509
63498197,512
63508244,507
63518259,504
63528305,512
63538353,509
63548367,508
63558420,502
63568473,501
63578525,501
63588548,502
63598603,506
63608656,504
63618676,501
63628726,507
63638777,508
63648796,507
63658847,509
63668897,507
63678919,510
63688971,507
63699020,504
63709038,512
63719087,512
63729137,503
63739154,507
63749200,510
63759241,510
63769250,506
63779291,502
63789335,502
63799352,506
63809398,509
63819445,502
63829491,500
63839507,508
63849553,508
63859599,507
63869615,509
63879664,509
63889710,509
63899726,501
63909774,509
63919819,501
63929833,509
63939876,510
63949919,503
63959936,503
63969982,508
63980029,506
63990047,509
64000090,502
64010135,504
64020154,508
64030197,509
64040244,508
64050262,504
64060310,507
64070357,508
64080403,504
64090416,507
64100459,505
64110500,507
64120512,508
64130557,508
64140602,511
64150615,509
64160659,507
64170705,511
64180719,509
64190763,509
64200808,517
64210826,520
64220871,519
64230918,524
64240934,528
64250982,531
64261028,529
64271041,523
64281088,528
64291134,520
64301149,526
64311190,520
64321233,521
64331276,515
64341287,517
64351328,514
64361375,506
64371389,504
64381435,508
64391481,506
64401497,505
64411543,500
64421590,507
64431605,507
64441650,505
64451696,504
64461710,507
64471754,507
64481800,506
64491815,504
64501862,507
64511908,509
64521923,508
64531969,509
64542016,511
64552030,509
64562077,505
64572124,509
64582170,504
64592188,511
64602235,501
64612280,505
64622296,505
64632343,500
64642391,508
64652412,501
64662462,502
64672509,505
64682526,505
64692576,508
64702625,504
64712642,508
64722690,502
64732738,506
64742757,509
64752805,508
64762855,507
64772875,508
64782926,507
64792980,503
64803001,511
64813052,503
64823102,506
64833152,506
64843174,506
64853225,500
64863276,506
64873295,502
64883344,503
64893394,506
64903413,501
64913463,504
64923511,506
64933529,506
64943576,500
64953619,504
64963633,502
64973681,507
64983728,504
64993747,509
65003797,509
65013845,512
65023863,512
65033906,515
65043953,517
65053972,521
65064022,520
65074067,524
65084113,521
65094127,529
65104171,529
65114217,527
65124231,526
65134277,519
65144320,517
65154334,517
65164381,512
65174427,512
65184443,513
65194491,506
65204539,509
65214554,501
65224602,509
65234649,507
65244667,506
65254713,508
65264758,505
65274777,506
65284830,501
65294882,508
65304897,507
65314945,505
65324993,510
65335039,507
65345055,512
65355100,508
65365147,511
65375166,505
65385216,507
65395267,511
65405287,510
65415337,510
65425382,510
65435399,509
65445442,507
65455485,508
65465498,504
65475546,508
65485591,508
65495607,509
65505656,508
65515702,509
65525719,504
65535770,504
65545819,505
65555838,503
65565891,507
65575942,502
65585986,506
65595999,509
65606046,500
65616094,508
65626110,499
65636157,507
65646204,508
65656218,506
65666264,506
65676309,506
65686325,505
65696371,503
65706419,507
65716433,509
65726481,508
65736527,502
65746543,508
65756590,508
65766637,501
65776655,505
65786702,507
65796751,508
65806764,501
65816810,507
65826851,505
65836896,506
65846912,505
65856960,504
65867006,507
65877024,510
65887072,508
65897116,515
65907131,513
65917178,521
65927224,520
65937240,524
65947288,525
65957336,529
65967352,526
65977396,524
65987443,519
65997460,520
66007509,521
66017555,517
66027570,512
66037613,516
66047658,508
66057675,505
66067720,509
66077768,503
66087813,502
66097830,508
66107877,504
66117921,504
66127936,505
66137983,505
66148031,508
66158046,508
66168093,509
66178140,500
66188156,509
66198201,502
66208245,508
66218261,506
66228307,511
66238356,512
66248376,508
66258425,512
66268470,511
66278487,510
66288536,503
66298584,511
66308603,510
66318653,505
66328707,511
66338759,510
66348779,509
66358829,505
66368877,502
66378892,509
66388939,501
66398987,503
66409002,508
66419047,510
66429094,501
66439108,503
66449154,507
66459197,501
66469212,509
66479259,501
66489304,507
66499321,510
66509368,509
66519414,510
66529432,509
66539477,507
66549524,510
66559539,508
66569588,510
66579639,504
66589693,509
66599712,504
66609761,505
66619810,512
66629829,508
66639877,506
66649927,505
66659944,508
66669994,506
66680045,512
66690065,512
66700116,517
66710166,519
66720185,520
66730234,516
66740279,525
66750299,526
66760351,524
66770402,518
66780424,523
66790474,520
66800525,524
66810547,517
66820596,520
66830643,516
66840689,507
66850706,510
66860754,512
66870804,504
66880826,507
66890877,507
66900928,504
66910949,504
66920999,509
66931048,506
66941066,504
66951117,506
66961165,505
66971184,508
66981235,501
66991288,509
67001311,504
67011363,512
67021413,508
67031438,512
67041491,502
67051543,509
67061566,511
67071617,506
67081668,508
67091720,510
67101741,503
67111795,509
67121845,508
67131865,503
67141916,504
67151966,505
67161983,509
67172028,499
67182076,509
67192094,507
67202142,507
67212192,507
67222210,508
67232261,501
67242309,511
67252329,506
67262380,501
67272430,501
67282451,512
67292501,509
67302550,508
67312569,507
67322618,505
67332670,507
67342720,504
67352741,499
67362790,509
67372837,510
67382859,508
67392910,502
67402962,510
67412980,504
67423029,504
67433081,511
67443105,509
67453156,515
67463206,516
67473225,518
67483275,515
67493326,516
67503347,521
67513398,526
67523449,527
67533471,526
67543523,524
67553574,522
67563595,523
67573642,520
67583691,517
67593743,515
67603766,514
67613819,512
67623872,507
67633894,509
67643943,509
67653999,504
67664028,506
67674085,506
67684141,508
67694168,501
67704222,502
67714273,504
67724292,506
67734343,507
67744396,507
67754418,509
67764469,510
67774518,510
67784540,508
67794593,512
67804643,512
67814666,509
67824714,508
67834766,507
67844816,507
67854836,509
67864888,503
67874939,505
67884958,508
67895009,508
67905059,502
67915076,501
67925123,504
67935171,510
67945190,505
67955239,503
67965290,508
67975308,508
67985358,503
67995409,503
68005428,503
68015479,505
68025530,509
68035551,504
68045602,500
68055651,504
68065667,504
68075713,508
68085764,505
68095817,504
68105835,506
68115886,509
68125940,508
68135960,510
68146012,505
68156065,510
68166085,508
68176137,509
68186187,506
68196205,507
68206255,505
68216304,513
68226322,516
68236368,517
68246414,520
68256428,524
68266474,528
68276519,522
68286535,526
68296582,530
68306630,522
68316649,528
68326696,525
68336745,524
68346797,518
68356824,519
68366881,516
68376932,516
68386947,507
68396996,512
68407046,505
68417066,504
68427113,511
68437163,507
68447179,509
68457227,506
68467278,508
68477296,507
68487348,502
68497398,504
68507418,507
68517469,518
68527517,505
68537536,511
68547585,509
68557633,509
68567650,503
68577700,508
68587751,507
68597803,505
68607822,509
68617874,508
68627922,501
68637939,510
68647986,505
68658033,510
68668048,503
68678096,509
68688144,507
68698163,512
68708210,510
68718259,510
68728275,508
68738319,506
68748364,504
68758378,510
68768423,502
68778464,510
68788481,508
68798531,508
68808580,503
68818599,510
68828650,509
68838697,509
68848743,501
68858760,508
68868808,506
68878856,512
68888875,505
68898924,505
68908969,504
68918983,504
68929029,506
68939074,511
68949085,508
68959125,501
68969167,505
68979185,511
68989238,507
68999285,505
69009298,512
69019344,511
69029391,512
69039404,517
69049448,524
69059495,521
69069509,531
69079561,530
69089609,531
69099655,531
69109671,527
69119717,533
69129766,522
69139782,522
69149833,526
69159880,523
69169898,518
69179948,514
69189995,517
69200011,513
69210059,511
69220108,503
69230125,508
69240177,509
69250227,510
69260247,506
69270298,506
69280348,503
69290366,502
69300416,507
69310466,508
69320492,508
69330545,504
69340599,509
69350652,510
69360675,504
69370731,510
69380784,506
69390802,509
69400848,505
69410896,513
69420916,502
69430967,502
69441019,506
69451039,509
69461089,505
69471139,504
69481157,505
69491204,504
69501253,503
69511270,507
69521318,504
69531366,506
69541383,506
69551430,504
69561481,504
69571502,507
69581551,501
69591597,507
69601643,506
69611657,508
69621707,503
69631757,504
69641775,503
69651824,507
69661871,509
69671888,503
69681934,509
69691981,506
69701999,508
69712045,504
69722094,504
69732111,509
69742158,504
69752205,508
69762221,509
69772271,508
69782320,507
69792338,500
69802384,504
69812431,503
69822454,506
69832512,505
69842567,510
69852617,507
69862636,512
69872689,510
69882744,514
69892768,518
69902820,519
69912874,522
69922890,520
69932936,524
69942983,527
69953001,524
69963051,524
69973099,518
69983117,519
69993163,517
70003213,519
70013234,512
70023281,507
70033328,510
70043346,510
70053397,508
70063446,509
70073463,505
70083509,508
70093555,505
70103602,506
70113620,504
70123667,504
70133715,510
70143734,506
70153783,502
70163829,509
70173841,507
70183885,507
70193929,513
70203950,505
70214000,513
70224052,512
70234076,512
70244128,512
70254180,504
70264197,505
70274244,512
70284290,512
70294305,509
70304355,502
70314406,509
70324427,504
70334476,509
70344524,506
70354573,510
70364591,510
70374636,505
70384686,505
70394703,510
70404749,509
70414795,508
70424810,505
70434857,509
70444907,500
70454922,508
70464969,507
70475017,507
70485032,507
70495077,509
70505125,508
70515140,500
70525187,509
70535234,505
70545252,508
70555302,509
70565353,499
70575372,509
70585422,503
70595471,508
70605524,508
70615550,510
70625609,508
70635668,507
70645697,520
70655755,520
70665809,519
70675830,524
70685886,525
70695946,529
70705977,526
70716035,527
70726090,523
70736116,523
70746167,522
70756219,513
70766238,511
70776290,515
70786340,512
70796361,515
70806413,507
70816467,506
70826488,507
70836541,499
70846592,501
70856643,507
70866664,498
70876716,506
70886768,499
70896786,503
70906838,506
70916888,500
70926908,505
70936957,500
70947006,505
70957027,509
70967079,504
70977126,511
70987143,509
70997193,507
71007241,501
71017256,508
71027304,510
71037352,511
71047370,504
71057421,501
71067471,506
71077493,503
71087543,502
71097592,501
71107643,500
71117661,504
71127707,507
71137752,501
71147762,507
71157806,506
71167851,501
71177867,509
71187914,505
71197963,507
71207979,508
71218029,508
71228080,507
71238098,509
71248147,506
71258193,504
71268208,508
71278253,507
71288299,509
71298314,502
71308361,508
71318409,508
71328427,505
71338476,508
71348525,507
71358578,507
71368599,505
71378646,504
71388694,508
71398708,511
71408759,514
71418811,521
71428827,516
71438875,526
71448923,527
71458942,526
71468994,526
71479047,527
71489064,527
71499115,526
71509168,522
71519191,519
71529243,520
71539295,510
71549314,513
71559365,510
71569417,516
71579436,508
71589486,510
71599534,506
71609581,506
71619598,498
71629648,506
71639696,502
71649716,504
71659768,501
71669817,501
71679839,506
71689888,504
71699942,507
71709967,504
71720020,508
71730070,509
71740092,510
71750141,504
71760192,510
71770216,508
71780268,509
71790319,504
71800337,502
71810390,503
71820442,501
71830464,508
71840515,507
71850564,509
71860615,508
71870636,507
71880686,503
71890736,500
71900756,501
71910807,507
71920861,507
71930883,500
71940937,507
71950993,507
71961016,511
71971067,508
71981118,507
71991137,502
72001187,507
72011238,508
72021258,508
72031306,507
72041357,510
72051383,509
72061437,507
72071494,508
72081519,502
72091570,510
72101628,506
72111689,507
72121718,501
72131776,503
72141834,500
72151863,504
72161924,509
72171983,503
72182012,500
72192070,503
72202126,511
72212151,508
72222204,509
72232256,517
72242279,519
72252334,519
72262386,526
72272405,528
72282456,527
72292506,529
72302520,529
72312571,529
72322623,520
72332647,525
72342701,516
72352755,513
72362805,515
72372824,516
72382879,514
72392933,514
72402957,513
72413009,503
72423062,510
72433085,501
72443137,504
72453188,500
72463211,506
72473264,506
72483316,501
72493339,502
72503391,500
72513441,506
72523460,506
72533514,507
72543570,506
72553593,511
72563647,508
72573703,503
72583728,511
72593782,512
72603837,508
72613889,510
72623911,510
72633963,505
72644015,510
72654038,504
72664089,507
72674142,503
72684164,504
72694214,507
72704264,505
72714283,508
72724336,508
72734387,501
72744406,507
72754451,505
72764503,507
72774526,507
72784579,502
72794630,507
72804652,510
72814703,508
72824756,508
72834775,503
72844827,501
72854878,505
72864928,511
72874949,507
72885003,508
72895058,501
72905081,511
72915134,508
72925190,509
72935214,504
72945268,506
72955324,504
72965343,503
72975397,507
72985450,507
72995473,508
73005528,510
73015580,502
73025602,510
73035654,509
73045702,508
73055721,507
73065770,508
73075818,510
73085838,511
73095888,511
73105938,515
73115987,515
73126004,519
73136056,524
73146109,525
73156133,525
73166188,530
73176245,529
73186269,530
73196322,529
73206375,520
73216397,522
73226453,519
73236508,509
73246531,515
73256584,515
73266637,510
73276659,507
73286713,512
73296765,504
73306790,510
73316844,508
73326898,499
73336923,502
73346979,499
73357034,506
73367089,501
73377114,499
73387168,499
73397224,503
73407250,509
73417305,509
73427362,510
73437389,510
73447445,508
73457504,508
73467538,503
73477602,508
73487666,503
73497700,510
73507765,503
73517821,503
73527846,508
73537902,502
73547958,506
73557985,506
73568043,505
73578099,506
73588127,502
73598182,503
73608236,505
73618292,503
73628320,507
73638378,501
73648432,507
73658455,503
73668508,505
73678560,506
73688582,502
73698636,500
73708686,508
73718704,507
73728753,504
73738802,504
73748819,505
73758872,510
73768926,501
73778946,508
73788998,508
73799047,505
73809068,503
73819117,509
73829168,508
73839187,500
73849236,504
73859286,502
73869336,505
73879353,507
73889401,505
73899450,500
73909468,506
73919517,508
73929567,509
73939584,510
73949631,508
73959681,505
73969700,511
73979748,514
73989796,518
73999814,522
74009866,521
74019915,524
74029933,527
74039982,524
74050029,525
74060042,528
74070085,519
74080127,523
74090136,522
74100175,515
74110217,512
74120261,508
74130275,513
74140321,511
74150369,512
74160384,511
74170431,504
74180476,501
74190487,508
74200528,508
74210571,501
74220582,500
74230625,505
74240675,503
74250692,507
74260740,507
74270790,504
74280806,505
74290853,505
74300900,502
74310917,506
74320964,509
74331009,502
74341025,503
74351075,507
74361124,509
74371174,509
74381197,506
74391247,507
74401293,505
74411313,509
74421364,510
74431414,506
74441428,503
74451474,503
74461520,500
74471536,507
74481579,507
74491624,504
74501636,508
74511681,507
74521725,506
74531735,502
74541780,507
74551824,501
74561841,502
74571886,508
74581934,506
74591952,506
74601999,507
74612046,506
74622093,501
74632110,509
74642156,504
74652202,503
74662217,507
74672261,503
74682306,507
74692320,510
74702364,508
74712409,504
74722424,500
74732469,505
74742516,508
74752533,507
74762581,507
74772630,510
74782645,507
74792695,505
74802745,507
74812765,505
74822816,505
74832867,507
74842888,503
74852935,505
74862981,514
74873029,518
74883049,518
74893103,519
74903161,523
74913189,525
74923246,521
74933303,523
74943327,525
74953370,526
74963415,516
74973429,518
74983471,515
74993519,514
75003540,515
75013594,514
75023649,511
75033669,512
75043723,505
75053778,504
75063800,502
75073857,504
75083918,500
75093942,502
75103991,505
75114041,505
75124088,501
75134104,502
75144152,504
75154199,507
75164214,507
75174259,508
75184304,505
75194321,507
75204366,512
75214410,509
75224426,506
75234471,511
75244520,504
75254536,503
75264579,512
75274628,506
75284649,508
75294697,503
75304747,508
75314765,507
75324818,502
75334869,506
75344884,507
75354925,503
75364969,512
75375016,503
75385032,509
75395077,511
75405122,506
75415138,503
75425183,503
75435229,508
75445246,505
75455294,506
75465340,507
75475356,511
75485406,509
75495455,502
75505477,511
75515526,501
75525575,509
75535594,510
75545643,507
75555693,509
75565711,508
75575759,504
75585805,507
75595821,501
75605869,505
75615912,505
75625955,507
75635967,509
75646010,503
75656056,511
75666073,507
75676122,514
75686172,512
75696188,520
75706233,521
75716280,522
75726297,520
75736344,520
75746393,525
75756410,519
75766454,524
75776498,524
75786515,512
75796561,515
75806605,515
75816618,511
75826664,517
75836708,514
75846720,512
75856762,511
75866809,504
75876857,501
75886874,508
75896925,507
75906975,503
75916994,507
75927046,507
75937097,505
75947117,503
75957166,506
75967211,501
75977226,507
75987274,504
75997327,511
76007353,510
76017409,509
76027459,512
76037473,510
76047523,505
76057572,506
76067589,507
76077639,507
76087689,505
76097706,502
76107757,510
76117809,501
76127861,508
76137881,508
76147929,508
76157975,502
76167988,507
76178032,501
76188081,503
76198097,510
76208143,506
76218191,503
76228210,508
76238260,506
76248302,508
76258312,503
76268358,508
76278408,502
76288424,508
76298472,502
76308521,509
76318541,509
76328589,509
76338636,505
76348651,508
76358699,508
76368749,501
76378800,510
76388821,501
76398873,507
76408924,507
76418947,508
76428998,510
76439048,514
76449066,503
76459116,508
76469165,511
76479183,516
76489231,512
76499278,518
76509296,525
76519348,524
76529400,522
76539421,525
76549473,520
76559523,526
76569545,526
76579596,515
76589648,522
76599667,518
76609717,517
76619764,518
76629808,517
76639822,516
76649869,514
76659916,512
76669934,507
76679984,504
76690031,509
76700048,504
76710096,505
76720143,507
76730162,505
76740214,507
76750265,506
76760284,504
76770329,507
76780375,511
76790391,509
76800437,508
76810483,501
76820498,509
76830546,507
76840597,502
76850617,511
76860665,503
76870712,508
76880759,508
76890777,508
76900826,508
76910871,508
76920887,501
76930935,508
76940982,501
76950998,507
76961045,507
76971091,509
76981107,505
76991152,507
77001194,509
77011205,510
77021248,504
77031294,506
77041308,501
77051353,503
77061401,510
77071418,508
77081468,509
77091512,507
77101526,510
77111572,509
77121616,504
77131660,506
77141672,503
77151710,504
77161754,509
77171766,506
77181808,501
77191850,510
77201868,511
77211917,510
77221963,507
77231977,507
77242022,505
77252065,507
77262076,510
77272118,507
77282160,511
77292172,514
77302214,508
77312260,514
77322272,517
77332317,523
77342360,523
77352369,518
77362414,521
77372462,524
77382506,519
77392521,520
77402568,522
77412611,517
77422622,516
77432666,514
77442710,507
77452722,513
77462764,510
77472802,511
77482813,512
77492855,511
77502895,511
77512906,511
77522947,503
77532994,507
77543005,505
77553048,503
77563094,508
77573109,505
77583155,509
77593200,504
77603217,509
77613260,510
77623305,510
77633350,510
77643361,509
77653405,506
77663449,510
77673462,506
77683505,507
77693549,508
77703561,509
77713604,503
77723646,509
77733661,508
77743705,508
77753748,508
77763761,505
77773806,511
77783849,505
77793857,508
77803895,510
77813935,507
77823950,506
77833995,503
77844037,505
77854046,509
77864085,509
77874120,507
77884159,508
77894170,509
77904213,508
77914257,509
77924269,502
77934313,502
77944365,505
77954381,509
77964429,510
77974478,506
77984495,509
77994544,507
78004593,508
78014615,508
78024665,504
78034708,503
78044724,508
78054770,505
78064819,504
78074840,509
78084890,512
78094938,507
78104952,508
78114999,510
78125048,514
78135093,515
78145108,519
78155155,521
78165198,526
78175213,525
78185260,524
78195306,527
78205324,520
78215372,518
78225418,517
78235436,521
78245485,518
78255534,512
78265551,516
78275597,509
78285645,514
78295659,511
78305701,512
78315741,508
78325754,510
78335801,509
78345847,509
78355863,509
78365913,500
78375963,502
78386011,508
78396027,502
78406074,509
78416118,506
78426132,509
78436182,509
78446233,508
78456254,506
78466308,508
78476355,503
78486372,510
78496421,510
78506470,508
78516489,505
78526539,509
78536592,510
78546612,506
78556661,507
78566710,506
78576730,500
78586778,501
78596827,506
78606843,502
78616891,507
78626942,505
78636992,508
78647012,507
78657055,506
78667094,503
78677109,508
78687156,506
78697204,512
78707220,499
78717266,511
78727312,506
78737331,511
78747383,504
78757433,507
78767452,508
78777502,507
78787553,507
78797574,509
78807625,503
78817677,511
78827698,505
78837750,503
78847802,506
78857820,508
78867867,505
78877914,502
78887959,508
78897972,510
78908020,505
78918066,508
78928081,517
78938127,516
78948173,523
78958192,517
78968240,526
78978288,525
78988303,526
78998348,530
79008395,522
79018409,526
79028454,525
79038500,520
79048515,524
79058557,514
79068602,519
79078613,515
79088656,507
79098699,512
79108710,510
79118757,506
79128801,511
79138846,500
79148860,508
79158906,502
79168952,502
79178964,499
79189007,500
79199055,508
79209067,507
79219113,508
79229160,506
79239177,509
79249224,507
79259268,511
79269283,511
79279329,507
79289379,506
79299396,509
79309443,508
79319493,510
79329513,509
79339560,508
79349608,508
79359626,510
79369673,511
79379722,508
79389770,507
79399787,505
79409836,508
79419886,502
79429905,510
79439953,508
79449998,510
79460015,509
79470064,508
79480112,510
79490128,506
79500178,505
79510227,510
79520244,507
79530293,510
79540343,503
79550361,508
79560413,501
79570464,502
79580484,504
79590535,511
79600586,506
79610605,510
79620651,501
79630702,505
79640754,508
79650776,506
79660825,507
79670875,505
79680895,508
79690946,511
79700997,501
79711014,508
79721062,508
79731110,505
79741129,515
79751177,513
79761226,520
79771246,514
79781298,518
79791350,525
79801371,527
79811421,525
79821472,526
79831490,528
79841540,523
79851587,523
79861607,515
79871653,518
79881704,520
79891755,517
79901776,508
79911825,514
79921873,510
79931889,513
79941939,506
79951986,507
79962003,506
79972052,504
79982102,506
79992121,502
80002170,491
80012223,508
80022245,501
80032296,510
80042347,511
80052364,507
80062409,509
80072457,505
80082476,507
80092522,509
80102570,512
80112590,505
80122640,507
80132689,505
80142741,506
80152759,511
80162809,501
80172858,508
80182875,509
80192926,510
80202976,504
80212994,502
80223043,508
80233089,510
80243105,503
80253151,509
80263196,505
80273213,504
80283260,502
80293308,506
80303328,502
80313376,502
80323420,507
80333436,506
80343481,509
80353526,509
80363542,509
80373589,504
80383634,505
80393678,500
80403692,515
80413737,505
80423781,510
80433795,501
80443838,506
80453884,508
80463898,506
80473944,507
80483993,503
80494010,507
80504059,509
80514105,508
80524123,509
80534168,505
80544208,508
80554221,507
80564263,506
80574308,511
80584322,507
80594368,513
80604414,518
80614428,515
80624469,523
80634512,521
80644555,523
80654569,524
80664618,528
80674664,525
80684679,525
80694729,521
80704778,522
80714795,518
80724842,512
80734889,511
80744906,513
80754953,511
80764999,509
80775014,510
80785063,511
80795110,511
80805128,500
80815177,507
80825223,499
80835237,503
80845285,504
80855335,505
80865351,505
80875397,507
80885439,508
80895481,506
80905491,502
80915534,509
80925580,508
80935597,509
80945641,509
80955679,504
80965691,510
80975732,503
80985776,506
80995789,510
81005828,506
81015874,502
81025885,502
81035926,507
81045969,508
81055981,506
81066021,508
81076063,504
81086073,506
81096115,505
81106156,504
81116169,508
81126212,509
81136256,508
81146304,505
81156324,506
81166377,510
81176421,509
81186434,508
81196477,506
81206521,506
81216536,508
81226581,505
81236627,503
81246641,509
81256682,505
81266722,507
81276736,510
81286782,505
81296822,503
81306833,508
81316879,509
81326925,509
81336939,507
81346985,508
81357030,510
81367043,506
81377085,510
81387130,509
81397174,513
81407187,516
81417233,521
81427278,514
81437290,520
81447333,525
81457378,526
81467391,526
81477432,522
81487475,523
81497491,522
81507535,524
81517577,518
81527592,514
81537635,512
81547676,514
81557686,512
81567728,512
81577772,505
81587788,505
81597834,507
81607877,505
81617891,505
81627936,506
81637978,508
81648023,504
81658034,504
81668075,506
81678118,501
81688132,510
81698174,504
81708217,510
81718233,509
81728276,511
81738320,512
81748334,509
81758382,512
81768430,503
81778446,509
81788494,510
81798542,502
81808559,509
81818604,505
81828650,510
81838663,510
81848707,501
81858748,507
81868760,503
81878800,507
81888839,501
81898881,506
81908891,508
81918931,502
81928968,505
81938976,507
81949016,508
81959060,510
81969075,503
81979121,505
81989164,509
81999178,506
82009223,509
82019266,509
82029279,502
82039321,508
82049364,509
82059375,510
82069417,502
82079460,506
82089471,502
82099513,503
82109555,505
82119564,502
82129607,507
82139648,510
82149688,511
82159698,512
82169739,515
82179782,512
82189798,519
82199845,516
82209895,522
82219914,528
82229955,524
82240000,528
82250009,523
82260052,525
82270098,522
82280113,521
82290159,521
82300204,519
82310219,518
82320265,510
82330312,506
82340325,513
82350370,511
82360413,507
82370428,505
82380474,510
82390518,508
82400561,504
82410572,503
82420614,504
82430656,505
82440667,501
82450712,502
82460757,508
82470768,508
82480811,511
82490852,508
82500863,511
82510901,508
82520941,504
82530951,511
82540989,511
82551027,505
82561036,511
82571076,505
82581118,506
82591129,501
82601167,506
82611206,508
82621213,508
82631249,509
82641288,501
82651333,503
82661349,509
82671394,505
82681433,509
82691450,508
82701494,508
82711538,506
82721552,506
82731600,508
82741647,508
82751660,508
82761706,502
82771752,500
82781769,507
82791817,509
82801866,507
82811885,506
82821933,508
82831981,508
82841999,505
82852051,504
82862098,499
82872120,503
82882164,507
82892208,509
82902253,508
82912270,509
82922315,507
82932365,509
82942383,512
82952429,515
82962478,509
82972493,519
82982543,521
82992592,524
83002612,528
83012663,523
83022712,528
83032730,526
83042781,528
83052828,526
83062844,526
83072892,520
83082941,519
83092960,518
83103007,516
83113053,511
83123065,514
83133107,511
83143146,507
83153194,509
83163213,502
83173262,509
83183311,508
83193328,504
83203376,502
83213424,507
83223437,508
83233483,500
83243532,508
83253550,508
83263597,509
83273645,508
83283661,508
83293708,508
83303756,510
83313774,511
83323821,508
83333865,511
83343880,505
83353927,509
83363973,512
83373989,509
83384038,506
83394083,510
83404128,505
83414142,506
83424187,505
83434230,508
83444246,499
83454293,505
83464340,501
83474358,507
83484408,502
83494457,499
83504474,500
83514523,508
83524569,509
83534581,505
83544628,510
83554674,503
83564690,504
83574735,506
83584783,503
83594799,508
83604841,503
83614883,509
83624901,509
83634948,503
83644993,506
83655035,510
83665047,508
83675091,511
83685135,507
83695149,504
83705192,507
83715242,501
83725259,508
83735305,505
83745358,507
83755383,508
83765439,510
83775488,512
83785506,506
83795555,515
83805606,517
83815626,514
83825676,521
83835729,524
83845747,528
83855796,522
83865846,531
83875867,524
83885921,519
83895974,522
83906025,521
83916046,520
83926097,517
83936145,515
83946167,517
83956215,508
83966262,509
83976280,509
83986329,511
83996376,507
84006393,505
84016442,509
84026492,505
84036505,500
84046549,504
84056599,502
84066617,505
84076666,508
84086714,508
84096734,500
84106784,509
84116836,506
84126857,504
84136910,507
84146961,507
84157013,511
84167033,503
84177084,508
84187133,504
84197153,503
84207202,509
84217252,501
84227268,507
84237318,502
84247370,508
84257393,506
84267444,505
84277492,510
84287508,503
84297551,509
84307596,508
84317615,510
84327659,510
84337705,503
84347720,508
84357762,505
84367802,507
84377819,501
84387867,507
84397917,500
84407962,507
84417978,503
84428026,506
84438072,509
84448089,507
84458137,510
84468186,513
84478202,501
84488252,510
84498300,508
84508318,509
84518365,507
84528411,506
84538428,506
84548478,510
84558521,501
84568536,510
84578584,508
84588634,510
84598653,515
84608703,509
84618752,519
84628773,523
84638827,526
84648880,527
84658932,522
84668950,527
84679001,521
84689053,527
84699074,523
84709126,521
84719174,516
84729196,517
84739245,512
84749294,512
84759310,511
84769358,503
84779405,508
84789421,506
84799468,507
84809515,509
84819531,502
84829581,500
84839631,505
84849651,506
84859701,500
84869749,505
84879767,508
84889817,508
84899865,510
84909911,502
84919925,510
84929972,511
84940015,512
84950032,511
84960081,509
84970130,506
84980151,503
84990202,510
85000252,512
85010276,511
85020329,508
85030378,502
85040400,509
85050454,507
85060504,508
85070523,502
85080574,510
85090625,510
85100642,508
85110690,502
85120740,504
85130756,493
85140805,508
85150854,505
85160904,506
85170925,507
85180972,505
85191024,508
85201046,510
85211100,501
85221154,501
85231177,510
85241228,503
85251281,508
85261300,509
85271349,510
85281401,509
85291417,510
85301467,503
85311517,509
85321538,508
85331588,510
85341636,504
85351655,500
85361703,504
85371747,511
85381764,506
85391812,509
85401865,511
85411919,515
85421940,519
85431991,523
85442040,522
85452057,526
85462108,520
85472156,527
85482175,524
85492225,519
85502274,522
85512297,522
85522347,519
85532398,518
85542415,510
85552466,514
85562516,508
85572534,512
85582583,508
85592634,511
85602652,509
85612699,505
85622747,507
85632762,505
85642812,501
85652860,507
85662911,500
85672925,504
85682972,506
85693019,509
85703036,505
85713090,507
85723143,503
85733160,510
85743208,509
85753260,503
85763281,504
85773333,507
85783383,504
85793402,503
85803452,504
85813503,507
85823525,507
85833573,504
85843621,506
85853637,507
85863684,506
85873736,506
85883756,509
85893805,505
85903854,506
85913898,508
85923913,506
85933961,506
85944010,506
85954029,506
85964079,507
85974130,506
85984149,508
85994201,510
86004255,511
86014277,507
86024329,506
86034380,501
86044397,508
86054439,508
86064487,505
86074506,503
86084553,504
86094600,509
86104616,510
86114661,507
86124705,503
86134720,510
86144769,508
86154817,509
86164868,508
86174887,504
86184931,512
86194979,512
86204998,514
86215049,514
86225095,514
86235112,520
86245162,519
86255212,519
86265231,521
86275280,527
86285328,525
86295348,528
86305397,518
86315440,521
86325459,514
86335510,516
86345561,512
86355580,510
86365629,513
86375678,506
86385697,508
86395745,507
86405793,508
86415840,504
86425855,506
86435901,502
86445947,507
86455964,501
86466014,499
86476061,505
86486074,502
86496120,508
86506167,507
86516182,508
86526228,505
86536273,510
86546290,507
86556341,512
86566389,512
86576408,507
86586455,511
86596502,509
86606517,511
86616562,503
86626609,508
86636625,506
86646671,510
86656719,509
86666767,508
86676783,503
86686828,509
86696876,508
86706892,501
86716938,503
86726983,505
86736997,509
86747040,508
86757088,509
86767103,509
86777148,508
86787194,504
86797209,507
86807255,507
86817302,507
86827314,502
86837358,503
86847398,507
86857411,508
86867454,508
86877500,508
86887514,508
86897560,501
86907609,506
86917655,505
86927671,506
86937719,510
86947767,501
86957781,509
86967830,500
86977877,508
86987894,513
86997941,508
87007983,512
87018000,518
87028049,521
87038095,526
87048117,529
87058170,528
87068219,525
87078235,522
87088282,523
87098328,527
87108347,522
87118401,520
87128454,520
87138475,516
87148520,509
87158566,515
87168612,512
87178626,512
87188669,510
87198714,506
87208728,509
87218777,510
87228827,508
87238841,508
87248883,500
87258930,507
87268944,507
87278989,505
87289035,509
87299051,500
87309101,504
87319150,510
87329170,510
87339220,510
87349270,507
87359287,509
87369336,510
87379383,506
87389398,509
87399443,508
87409488,508
87419535,502
87429550,505
87439596,509
87449642,502
87459659,501
87469705,504
87479749,504
87489762,507
87499808,503
87509856,503
87519872,510
87529919,505
87539969,501
87549989,508
87560038,506
87570088,501
87580107,509
87590154,506
87600200,509
87610216,506
87620263,507
87630312,509
87640329,507
87650375,508
87660419,507
87670465,506
87680483,507
87690528,512
87700575,509
87710593,504
87720644,504
87730696,510
87740709,509
87750752,503
87760795,506
87770809,504
87780853,511
87790900,512
87800918,513
87810965,514
87821011,517
87831025,521
87841070,518
87851120,519
87861140,530
87871190,528
87881239,531
87891257,531
87901305,528
87911354,528
87921400,519
87931416,518
87941465,518
87951514,515
87961533,514
87971586,516
87981634,511
87991645,512
88001696,510
88011747,506
88021764,505
88031812,505
88041858,501
88051874,507
88061923,497
88071969,508
88081984,504
88092028,506
88102073,508
88112091,507
88122136,509
88132183,503
88142198,509
88152244,508
88162293,509
88172343,507
88182360,507
88192405,511
88202452,503
88212468,505
88222516,505
88232564,506
88242582,501
88252630,499
88262673,506
88272686,500
88282727,504
88292768,500
88302781,503
88312827,502
88322872,497
88332889,507
88342934,505
88352980,506
88362990,507
88373039,505
88383086,506
88393105,503
88403151,506
88413198,505
88423243,510
88433258,510
88443302,505
88453344,510
88463359,504
88473402,510
88483445,503
88493458,503
88503502,502
88513549,506
88523568,510
88533613,506
88543658,504
88553672,509
88563718,506
88573763,511
88583780,506
88593828,507
88603873,504
88613887,510
88623935,512
88633984,508
88644001,510
88654048,520
88664097,516
88674144,525
88684160,523
88694207,530
88704253,533
88714270,532
88724320,533
88734370,527
88744390,531
88754439,521
88764486,523
88774502,522
88784551,522
88794599,516
88804617,514
88814664,505
88824713,512
88834731,510
88844777,506
88854823,501
88864842,502
88874889,503
88884935,507
88894952,507
88904998,506
88915045,507
88925096,508
88935111,509
88945157,503
88955207,510
88965224,510
88975274,505
88985320,503
88995334,507
89005380,509
89015430,505
89025452,507
89035504,504
89045554,508
89055574,505
89065622,507
89075668,506
89085684,501
89095732,508
89105777,508
89115797,500
89125846,507
89135894,503
89145913,504
89155961,502
89166011,505
89176062,506
89186080,503
89196127,507
89206175,507
89216192,505
89226238,504
89236282,506
89246294,506
89256340,506
89266389,506
89276409,505
89286460,508
89296511,507
89306529,507
89316577,502
89326628,500
89336653,500
89346706,508
89356756,501
89366778,507
89376831,506
89386881,507
89396897,508
89406945,500
89416996,504
89427043,509
89437062,501
89447114,511
89457164,508
89467186,513
89477238,514
89487288,513
89497306,515
89507357,520
89517410,517
89527430,524
89537484,524
89547538,516
89557555,525
89567603,521
89577652,515
89587668,512
89597716,508
89607766,514
89617782,509
89627833,505
89637880,508
89647898,508
89657950,503
89668000,501
89678049,498
89688066,505
89698116,504
89708164,507
89718180,500
89728229,508
89738280,503
89748298,501
89758346,505
89768395,510
89778415,509
89788465,511
89798513,509
89808528,505
89818576,510
89828624,504
89838645,503
89848698,508
89858750,510
89868770,510
89878823,510
89888878,510
89898902,509
89908956,506
89919010,498
89929061,502
89939086,501
89949135,503
89959187,508
89969208,503
89979257,508
89989305,502
89999323,504
90009373,508
90019423,509
90029441,510
90039491,508
90049539,511
90059557,509
90069606,510
90079655,504
90089670,509
90099718,504
90109770,506
90119791,508
90129840,509
90139888,504
90149908,501
90159956,508
90170007,509
90180058,506
90190078,502
90200131,510
90210182,506
90220205,510
90230258,510
90240314,512
90250337,515
90260391,517
90270441,519
90280463,518
90290516,524
90300569,525
90310587,521
90320639,523
90330692,526
90340714,526
90350767,521
90360819,522
90370838,522
90380889,520
90390941,512
90400964,514
90411015,507
90421065,508
90431115,503
90441137,508
90451190,508
90461244,502
90471265,503
90481318,509
90491372,501
90501392,504
90511446,503
90521498,502
90531519,505
90541574,509
90551626,508
90561649,501
90571700,507
90581748,508
90591768,507
90601822,505
90611871,510
90621891,511
90631946,501
90641998,509
90652017,502
90662066,506
90672114,504
90682165,501
90692184,502
90702236,507
90712286,509
90722306,506
90732354,501
90742404,506
90752424,507
90762474,503
90772525,506
90782543,508
90792591,508
90802641,510
90812658,508
90822707,502
90832759,508
90842779,510
90852829,504
90862882,510
90872905,508
90882957,510
90893006,507
90903026,509
90913076,510
90923127,508
90933178,505
90943199,505
90953251,503
90963303,509
90973324,507
90983373,506
90993422,508
91003442,505
91013495,512
91023546,512
91033565,514
91043615,520
91053663,519
91063680,518
91073731,528
91083780,526
91093799,527
91103847,519
91113901,523
91123925,526
91133980,521
91144032,520
91154053,519
91164104,518
91174156,513
91184206,513
91194224,507
91204274,508
91214322,508
91224340,502
91234388,507
91244439,508
91254459,507
91264510,507
91274559,506
91284573,506
91294619,506
91304668,506
91314688,502
91324739,505
91334789,510
91344808,508
91354856,505
91364907,505
91374927,501
91384977,511
91395028,509
91405044,508
91415095,509
91425144,509
91435189,504
91445206,507
91455255,505
91465302,509
91475320,502
91485368,509
91495413,512
91505431,505
91515481,503
91525526,504
91535536,509
91545577,505
91555624,506
91565638,504
91575685,508
91585735,505
91595755,507
91605803,506
91615850,508
91625868,501
91635916,507
91645965,509
91655982,510
91666030,502
91676080,505
91686127,507
91696144,508
91706192,511
91716241,500
91726258,507
91736309,506
91746360,503
91756384,508
91766436,508
91776489,511
91786509,502
91796565,508
91806621,512
91816638,511
91826687,513
91836733,512
91846751,516
91856800,521
91866848,520
91876867,519
91886916,528
91896966,521
91906982,526
91917033,521
91927082,521
91937129,517
91947146,520
91957198,518
91967251,512
91977269,513
91987318,507
91997365,516
92007381,514
92017426,512
92027471,505
92037488,508
92047535,505
92057580,510
92067594,508
92077640,509
92087685,509
92097701,504
92107743,508
92117786,505
92127801,510
92137847,512
92147892,509
92157904,507
92167946,506
92177993,511
92188043,510
92198062,506
92208108,512
92218157,507
92228175,508
92238226,508
92248278,505
92258298,503
92268347,503
92278397,506
92288416,510
92298467,511
92308518,500
92318546,502
92328603,503
92338661,509
92348683,509
92358735,504
92368785,503
92378805,508
92388852,511
92398899,512
92408917,509
92418967,512
92429015,508
92439062,511
92449076,507
92459124,508
92469169,508
92479179,506
92489223,502
92499268,508
92509280,510
92519325,510
92529369,511
92539382,509
92549425,504
92559465,508
92569475,507
92579519,506
92589561,510
92599572,507
92609615,507
92619660,515
92629678,518
92639726,518
92649777,525
92659795,528
92669841,522
92679888,530
92689933,529
92699948,521
92709995,531
92720043,527
92730059,521
92740109,525
92750156,524
92760173,522
92770219,512
92780267,519
92790284,516
92800327,514
92810371,511
92820386,508
92830430,506
92840473,508
92850488,506
92860534,505
92870579,504
92880596,509
92890645,507
92900698,508
92910720,507
92920774,511
92930825,505
92940875,509
92950893,510
92960942,512
92970991,512
92981009,504
92991060,508
93001109,504
93011129,513
93021180,508
93031232,506
93041254,503
93051304,507
93061353,508
93071370,510
93081419,503
93091467,506
93101483,504
93111531,503
93121577,507
93131594,505
93141641,505
93151688,500
93161706,506
93171751,499
93181798,505
93191841,503
93201856,498
93211902,501
93221948,509
93231964,500
93242012,505
93252057,507
93262072,508
93272121,505
93282167,506
93292184,501
93302230,499
93312277,505
93322293,506
93332342,507
93342392,507
93352409,504
93362458,505
93372510,505
93382528,504
93392573,508
93402620,503
93412637,504
93422684,513
93432729,509
93442777,522
93452794,521
93462841,527
93472890,524
93482907,522
93492955,527
93503003,522
93513020,523
93523068,524
93533116,521
93543131,513
93553179,519
93563229,512
93573248,515
93583295,510
93593344,510
93603362,512
93613410,507
93623455,505
93633470,508
93643516,503
93653559,506
93663574,502
93673623,500
93683670,505
93693714,508
93703728,506
93713777,506
93723827,508
93733845,505
93743895,507
93753944,508
93763961,509
93774006,512
93784049,506
93794061,510
93804110,508
93814160,511
93824177,508
93834227,507
93844276,505
93854295,508
93864346,509
93874392,504
93884416,508
93894473,507
93904530,500
93914558,503
93924616,504
93934673,506
93944723,504
93954743,502
93964796,503
93974842,501
93984865,507
93994917,505
94004970,501
94014990,501
94025038,510
94035088,503
94045101,504
94055148,503
94065192,507
94075206,507
94085251,506
94095295,504
94105309,501
94115358,506
94125410,500
94135432,507
94145485,507
94155536,505
94165555,507
94175603,500
94185654,502
94195706,504
94205726,503
94215776,507
94225825,503
94235845,508
94245896,509
94255949,517
94265971,520
94276026,517
94286078,518
94296099,525
94306152,528
94316205,524
94326225,524
94336277,527
94346330,521
94356351,520
94366401,519
94376452,520
94386469,517
94396517,516
94406565,508
94416581,513
94426627,514
94436677,510
94446727,502
94456745,507
94466793,509
94476838,500
94486858,507
94496908,502
94506959,500
94516977,501
94527024,503
94537076,510
94547099,506
94557153,503
94567205,506
94577227,506
94587280,509
94597335,501
94607357,507
94617409,510
94627463,510
94637486,503
94647541,512
94657591,508
94667612,509
94677662,505
94687712,506
94697760,506
94707779,501
94717827,507
94727875,500
94737894,510
94747945,509
94757994,505
94768014,506
94778059,509
94788105,509
94798126,507
94808175,507
94818224,503
94828239,507
94838284,504
94848332,505
94858348,508
94868397,508
94878444,509
94888460,503
94898505,507
94908551,508
94918563,507
94928605,507
94938648,509
94948694,509
94958708,502
94968753,499
94978797,504
94988810,507
94998849,509
95008886,500
95018890,508
95028930,502
95038973,507
95048989,507
95059034,509
95069080,510
95079093,516
95089136,512
95099182,522
95109198,516
95119241,517
95129283,522
95139300,523
95149345,524
95159390,527
95169405,519
95179452,522
95189497,515
95199541,513
95209553,516
95219593,516
95229634,514
95239646,516
95249688,506
95259728,508
95269738,508
95279781,511
95289824,507
95299839,499
95309884,505
95319928,506
95329940,508
95339986,503
95350030,501
95360045,509
95370089,503
95380134,506
95390151,511
95400196,512
95410240,509
95420257,503
95430303,510
95440350,502
95450396,512
95460411,504
95470455,511
95480497,504
95490507,508
95500548,508
95510590,503
95520602,507
95530644,508
95540687,503
95550698,509
95560742,510
95570783,508
95580798,500
95590844,505
95600888,501
95610900,500
95620942,508
95630985,503
95640998,504
95651042,509
95661088,506
95671105,508
95681153,508
95691201,505
95701252,509
95711267,508
95721314,508
95731360,508
95741375,508
95751426,503
95761476,501
95771495,504
95781543,510
95791593,509
95801612,511
95811664,514
95821714,509
95831732,518
95841782,521
95851830,525
95861852,523
95871902,525
95881956,530
95891976,526
95902028,530
95912079,524
95922101,523
95932157,520
95942213,521
95952266,522
95962287,514
95972338,516
95982384,517
95992400,515
96002450,509
96012503,504
96022522,511
96032570,507
96042617,508
96052636,506
96062684,507
96072732,506
96082749,502
96092796,507
96102846,504
96112866,506
96122914,504
96132962,505
96142977,508
96153024,508
96163076,505
96173096,510
96183146,510
96193192,509
96203241,510
96213260,512
96223304,510
96233349,508
96243362,508
96253408,503
96263455,509
96273470,509
96283513,508
96293558,508
96303572,505
96313616,507
96323659,508
96333673,507
96343716,507
96353756,509
96363767,506
96373811,507
96383856,508
96393872,509
96403916,510
96413961,507
96423974,506
96434020,504
96444065,505
96454110,509
96464122,501
96474160,503
96484201,511
96494211,508
96504254,502
96514293,509
96524304,506
96534345,508
96544392,501
96554413,508
96564468,506
96574522,504
96584546,503
96594601,505
96604656,509
96614678,515
96624732,514
96634785,519
96644806,516
96654860,527
96664910,528
96674927,523
96684978,534
96695024,527
96705071,531
96715086,530
96725131,521
96735178,527
96745196,524
96755246,521
96765290,512
96775307,519
96785362,516
96795415,514
96805431,507
96815476,512
96825521,512
96835541,510
96845591,506
96855643,506
96865667,500
96875721,500
96885778,507
96895802,508
96905856,504
96915904,502
96925924,503
96935975,503
96946024,508
96956073,502
96966092,507
96976140,504
96986188,502
96996208,508
97006256,508
97016305,508
97026319,507
97036364,505
97046410,500
97056423,510
97066470,507
97076516,509
97086527,507
97096572,500
97106619,500
97116629,508
97126669,508
97136706,507
97146718,506
97156761,508
97166805,505
97176818,508
97186862,509
97196906,509
97206946,505
97216958,508
97226998,503
97237041,507
97247051,503
97257093,510
97267135,503
97277148,504
97287190,508
97297232,502
97307241,506
97317282,506
97327324,508
97337332,508
97347373,509
97357415,505
97367429,501
97377481,506
97387531,502
97397548,507
97407594,503
97417638,504
97427655,510
97437703,508
97447750,509
97457796,513
97467813,515
97477864,518
97487913,520
97497927,522
97507971,520
97518016,526
97528033,532
97538077,533
97548125,527
97558143,529
97568193,524
97578244,524
97588262,524
97598312,522
97608360,518
97618377,520
97628430,512
97638483,514
97648499,506
97658546,504
97668596,504
97678613,504
97688659,509
97698706,505
97708754,505
97718772,504
97728821,504
97738869,505
97748886,500
97758935,506
97768985,508
97779003,501
97789050,507
97799098,510
97809116,509
97819162,506
97829207,504
97839223,510
97849270,507
97859318,507
97869332,503
97879379,501
97889427,508
97899444,508
97909492,508
97919541,505
97929557,506
97939601,508
97949647,499
97959696,503
97969716,504
97979769,501
97989818,499
97999834,505
98009882,507
98019927,500
98029944,507
98039994,507
98050045,508
98060065,508
98070113,506
98080159,508
98090174,510
98100221,507
98110272,509
98120291,502
98130339,501
98140388,508
98150406,503
98160453,508
98170500,510
98180518,508
98190566,511
98200615,510
98210664,507
98220681,510
98230731,507
98240777,501
98250794,505
98260841,501
98270888,509
98280905,512
98290953,515
98301001,518
98311018,514
98321069,522
98331119,524
98341137,531
98351188,529
98361237,525
98371258,532
98381312,531
98391363,520
98401383,519
98411431,523
98421481,524
98431497,519
98441548,512
98451598,512
98461648,513
98471670,512
98481722,504
98491774,507
98501795,503
98511842,502
98521890,501
98531908,505
98541954,498
98552003,501
98562019,503
98572070,505
98582120,507
98592141,505
98602190,507
98612238,508
98622254,510
98632304,508
98642352,509
98652370,503
98662419,509
98672470,510
98682489,509
98692541,508
98702595,503
98712644,506
98722662,510
98732712,505
98742760,504
98752779,509
98762829,506
98772879,504
98782900,505
98792952,502
98803002,506
98813023,508
98823072,504
98833122,505
98843140,505
98853192,503
98863242,507
98873263,504
98883316,507
98893364,508
98903382,507
98913430,507
98923479,507
98933498,507
98943546,507
98953591,508
98963639,500
98973658,509
98983708,510
98993756,510
99003773,510
99013825,506
99023874,506
99033894,508
99043946,505
99053996,507
99064016,504
99074068,508
99084118,505
99094134,510
99104180,504
99114227,510
99124243,517
99134288,517
99144333,522
99154348,527
99164394,530
99174442,526
99184456,528
99194504,533
99204550,528
99214595,530
99224605,529
99234645,521
99244689,523
99254697,516
99264740,521
99274784,516
99284796,508
99294839,516
99304883,506
99314894,509
99324935,511
99334977,507
99344987,505
99355029,506
99365069,511
99375076,500
99385117,505
99395160,499
99405173,504
99415220,499
99425268,501
99435283,508
99445330,506
99455377,500
99465425,505
99475440,505
99485490,510
99495539,510
99505556,508
99515606,508
99525657,508
99535676,505
99545727,508
99555780,504
99565801,506
99575849,505
99585897,502
99595915,507
99605960,508
99616006,502
99626021,503
99636066,508
99646111,505
99656124,508
99666171,502
99676219,506
99686236,501
99696284,499
99706333,501
99716380,503
99726399,501
99736447,509
99746490,508
99756502,504
99766550,505
99776599,503
99786616,499
99796665,503
99806714,511
99816729,501
99826775,505
99836824,509
99846840,507
99856887,509
99866934,507
99876947,509
99886989,505
99897035,499
99907050,501
99917095,504
99927141,505
99937156,504
99947199,501
99957241,509
99967283,512
99977293,508
99987337,508
99997380,515
100007390,523
100017427,521
100027468,531
100037480,532
100047524,532
100057565,537
100067576,530
100077617,535
100087658,534
100097673,524
100107715,525
100117759,523
100127772,517
100137816,519
100147861,515
100157876,512
100167921,512
100177965,509
100187980,508
100198026,506
100208070,506
100218113,506
100228126,498
100238170,499
100248213,504
100258232,498
100268276,502
100278321,503
100288336,503
100298380,499
100308424,502
100318438,503
100328475,504
100338515,500
100348528,500
100358569,508
100368610,511
100378622,508
100388666,508
100398712,503
100408727,507
100418770,503
100428813,510
100438829,503
100448872,508
100458918,507
100468962,507
100478972,509
100489012,499
100499053,501
100509062,507
100519103,505
100529145,507
100539160,500
100549206,502
100559252,506
100569268,507
100579312,503
100589355,509
100599363,503
100609403,507
100619444,500
100629455,501
100639497,506
100649541,502
100659554,502
100669600,503
100679644,508
100689659,509
100699703,500
100709748,504
100719790,508
100729800,503
100739842,508
100749888,509
100759901,501
100769945,507
100779987,506
100790000,502
100800041,505
100810082,506
100820094,501
100830135,505
100840179,506
100850191,502
100860233,507
100870273,508
100880282,514
100890319,510
100900358,514
100910366,519
100920405,523
100930447,528
100940459,532
100950498,535
100960538,535
100970579,531
100980592,530
100990635,529
101000680,521
101010699,524
101020746,519
101030790,517
101040804,514
101050850,513
101060894,506
101070907,512
101080947,511
101090988,501
101101001,500
101111044,500
101121087,506
101131102,503
101141148,504
101151197,502
101161215,499
101171263,498
101181310,502
101191323,500
101201367,506
101211409,502
101221453,506
101231466,504
101241513,506
101251561,506
101261577,512
101271622,503
101281670,510
101291684,503
101301730,510
101311778,507
101321797,509
101331845,500
101341895,506
101351911,504
101361959,506
101372008,505
101382024,501
101392070,501
101402114,507
101412129,503
101422177,507
101432220,500
101442233,507
101452278,503
101462326,507
101472375,510
101482394,507
101492442,505
101502486,505
101512498,503
101522540,509
101532582,509
101542598,510
101552647,510
101562698,506
101572718,503
101582768,507
101592816,507
101602837,506
101612886,506
101622937,501
101632956,508
101643006,500
101653055,507
101663070,507
101673120,503
101683168,500
101693183,502
101703230,507
101713273,508
101723320,508
101733338,508
101743388,500
101753439,508
101763459,508
101773508,509
101783560,509
101793581,512
101803630,516
101813680,512
101823699,520
101833751,526
101843801,522
101853820,523
101863872,529
101873921,527
101883943,530
101893994,531
101904046,526
101914068,526
101924118,524
101934167,515
101944187,512
101954237,517
101964287,513
101974332,506
101984348,511
101994396,504
102004443,500
102014460,508
102024508,502
102034556,499
102044574,502
102054619,500
102064664,503
102074681,505
102084728,503
102094775,506
102104791,508
102114835,507
102124879,504
102134895,506
102144941,511
102154988,503
102165002,511
102175049,511
102185097,510
102195116,512
102205165,512
102215213,511
102225261,509
102235277,508
102245323,509
102255369,508
102265384,510
102275425,501
102285466,511
102295476,507
102305522,509
102315570,506
102325589,511
102335639,503
102345687,504
102355704,507
102365755,503
102375803,509
102385819,507
102395869,506
102405916,505
102415934,506
102425984,502
102436033,506
102446053,506
102456104,505
102466152,509
102476197,503
102486213,506
102496258,498
102506303,508
102516320,505
102526365,508
102536409,509
102546425,509
102556469,508
102566516,506
102576531,508
102586580,501
102596629,503
102606648,508
102616694,505
102626741,502
102636760,503
102646807,508
102656854,502
102666871,507
102676918,510
102686964,504
102696978,510
102707020,513
102717062,520
102727106,520
102737120,525
102747164,526
102757210,530
102767223,530
102777268,531
102787315,524
102797323,528
102807368,523
102817413,516
102827429,519
102837475,514
102847517,508
102857527,515
102867574,511
102877619,509
102887636,508
102897685,508
102907735,504
102917752,502
102927798,499
102937843,508
102947856,506
102957903,505
102967949,503
102977995,507
102988011,506
102998058,510
103008107,505
103018126,508
103028176,508
103038226,506
103048247,509
103058296,508
103068347,505
103078367,504
103088414,509
103098462,509
103108479,508
103118525,507
103128573,504
103138591,508
103148641,506
103158691,505
103168711,506
103178762,506
103188810,508
103198826,508
103208873,508
103218924,507
103228977,505
103238998,500
103249048,505
103259101,502
103269122,506
103279175,505
103289225,503
103299246,510
103309296,510
103319346,503
103329364,501
103339413,501
103349460,507
103359479,503
103369527,502
103379572,508
103389590,510
103399639,508
103409687,508
103419703,505
103429752,507
103439799,510
103449817,507
103459868,510
103469918,508
103479969,504
103489987,502
103500033,500
103510079,505
103520093,505
103530143,500
103540192,506
103550211,508
103560259,511
103570304,507
103580324,512
103590376,513
103600430,519
103610450,524
103620500,523
103630548,532
103640566,532
103650613,531
103660660,532
103670676,530
103680725,522
103690775,525
103700795,524
