timestamp, ppg
32973968,523
32984269,525
32994284,518
33004334,515
33014385,512
33024406,514
33034449,508
33044493,511
33054506,503
33064550,504
33074595,503
33084609,501
33094654,501
33104701,499
33114718,504
33124764,507
33134808,501
33144823,500
33154869,509
33164914,505
33174962,506
33184975,505
33195017,507
33205064,510
33215079,509
33225124,510
33235171,507
33245186,510
33255232,508
33265280,503
33275294,503
33285339,510
33295380,502
33305394,501
33315438,506
33325483,508
33335499,501
33345542,504
33355586,500
33365597,505
33375636,501
33385675,506
33395686,505
33405726,507
33415766,507
33425805,505
33435813,504
33445852,500
33455895,503
33465904,506
33475949,508
33485994,505
33496009,507
33506050,508
33516090,509
33526101,508
33536144,508
33546184,505
33556193,505
33566230,507
33576267,499
33586274,501
33596313,510
33606355,507
33616363,508
33626401,501
33636443,502
33646455,500
33656500,508
33666544,509
33676585,508
33686598,504
33696639,506
33706681,505
33716690,506
33726730,504
33736772,500
33746784,504
33756826,502
33766868,500
33776880,508
33786920,513
33796963,515
33806974,521
33817016,522
33827058,520
33837067,530
33847106,527
33857148,531
33867158,530
33877196,525
33887235,527
33897246,518
33907291,521
33917332,518
33927375,512
33937387,516
33947433,508
33957480,513
33967495,506
33977540,513
33987584,504
33997596,507
34007640,501
34017682,508
34027693,504
34037736,502
34047780,500
34057793,502
34067835,504
34077873,502
34087886,507
34097927,502
34107967,508
34117977,503
34128020,506
34138064,510
34148075,511
34158118,510
34168162,508
34178203,508
34188216,504
34198261,507
34208301,504
34218313,510
34228357,506
34238400,503
34248414,499
34258454,506
34268499,505
34278510,505
34288549,506
34298588,498
34308598,503
34318639,506
34328679,504
34338691,501
34348732,502
34358770,501
34368780,505
34378819,505
34388860,502
34398869,502
34408907,504
34418946,508
34428982,500
34438989,508
34449024,505
34459062,510
34469071,502
34479109,504
34489147,507
34499156,508
34509198,509
34519238,510
34529245,503
34539284,500
34549324,504
34559337,506
34569377,506
34579416,506
34589426,507
34599468,508
34609507,501
34619516,504
34629555,504
34639596,502
34649607,507
34659649,509
34669689,506
34679729,510
34689737,515
34699776,520
34709818,519
34719828,527
34729869,527
34739910,529
34749919,528
34759956,527
34769994,529
34780002,522
34790042,524
34800080,523
34810088,522
34820124,513
34830164,516
34840172,514
34850213,509
34860251,507
34870261,509
34880299,506
34890336,505
34900345,503
34910382,505
34920419,503
34930458,504
34940467,497
34950505,500
34960542,506
34970548,507
34980585,508
34990624,510
35000630,507
35010666,505
35020697,509
35030701,507
35040740,507
35050779,510
35060788,505
35070825,510
35080864,505
35090871,507
35100910,500
35110948,505
35120955,506
35130993,505
35141032,506
35151041,502
35161082,505
35171126,504
35181169,504
35191182,505
35201226,506
35211268,506
35221285,503
35231331,503
35241377,506
35251395,506
35261444,508
35271489,508
35281505,509
35291554,510
35301600,501
35311617,505
35321657,511
35331697,506
35341703,509
35351739,505
35361777,507
35371781,508
35381822,508
35391857,510
35401864,510
35411902,508
35421942,502
35431979,499
35441989,505
35452025,499
35462064,507
35472076,505
35482117,508
35492159,502
35502172,509
35512213,511
35522256,512
35532273,520
35542322,520
35552373,526
35562392,529
35572441,527
35582488,534
35592506,526
35602553,531
35612598,526
35622613,526
35632658,516
35642696,515
35652708,520
35662749,516
35672791,510
35682831,505
35692838,503
35702879,505
35712918,502
35722928,499
35732965,502
35743003,500
35753013,497
35763055,495
35773096,497
35783107,493
35793150,495
35803191,500
35813199,496
35823238,504
35833277,506
35843286,507
35853326,501
35863365,506
35873375,510
35883413,504
35893452,508
35903460,508
35913498,508
35923536,514
35933575,512
35943583,508
35953623,509
35963665,510
35973674,505
35983718,510
35993760,506
36003770,508
36013809,508
36023849,500
36033858,502
36043897,503
36053935,506
36063946,506
36073986,503
36084028,506
36094037,499
36104074,506
36114111,499
36124119,506
36134157,504
36144193,505
36154199,504
36164239,509
36174277,507
36184314,507
36194319,504
36204358,506
36214399,501
36224403,507
36234436,501
36244472,501
36254480,498
36264518,501
36274556,502
36284565,506
36294602,504
36304638,507
36314645,498
36324683,508
36334720,505
36344727,501
36354765,513
36364800,515
36374801,515
36384834,522
36394868,526
36404873,527
36414908,530
36424943,526
36434979,526
36444984,523
36455020,530
36465057,520
36475058,518
36485093,515
36495129,520
36505133,513
36515164,513
36525196,510
36535199,506
36545230,502
36555264,502
36565270,507
36575306,504
36585339,508
36595341,503
36605373,497
36615410,498
36625418,498
36635455,500
36645489,502
36655496,501
36665531,508
36675569,507
36685603,503
36695606,511
36705640,511
36715673,506
36725675,512
36735711,507
36745743,509
36755744,502
36765777,503
36775810,503
36785814,502
36795851,508
36805887,501
36815891,508
36825927,506
36835959,507
36845961,501
36855997,502
36866033,502
36876039,501
36886078,498
36896113,500
36906116,500
36916146,500
36926178,506
36936211,506
36946213,505
36956249,502
36966284,501
36976290,508
36986326,505
36996363,510
37006371,508
37016410,509
37026447,499
37036457,509
37046497,504
37056538,507
37066547,504
37076588,506
37086631,504
37096642,506
37106682,498
37116724,505
37126730,497
37136764,504
37146805,505
37156820,508
37166868,505
37176914,502
37186959,508
37196971,508
37207014,509
37217056,521
37227066,520
37237107,524
37247149,529
37257161,529
37267205,531
37277248,523
37287261,530
37297306,524
37307349,524
37317361,518
37327404,509
37337445,513
37347454,522
37357493,509
37367534,510
37377545,508
37387584,502
37397625,506
37407634,505
37417676,501
37427719,503
37437759,505
37447769,501
37457810,499
37467851,498
37477861,504
37487898,510
37497938,503
37507946,502
37517990,505
37528028,509
37538035,504
37548076,505
37558120,525
37568131,510
37578172,508
37588213,502
37598222,501
37608260,506
37618301,499
37628310,500
37638349,506
37648388,506
37658392,505
37668427,502
37678463,507
37688497,504
37698502,500
37708541,504
37718580,505
37728589,507
37738626,501
37748666,503
37758673,505
37768715,499
37778758,506
37788767,505
37798808,507
37808849,505
37818858,504
37828899,500
37838938,500
37848948,499
37858987,508
37869025,504
37879033,507
37889070,506
37899106,507
37909107,506
37919142,506
37929178,502
37939212,504
37949216,502
37959254,506
37969292,503
37979300,502
37989338,501
37999374,505
38009380,503
38019418,510
38029453,514
38039460,512
38049498,521
38059534,524
38069543,523
38079584,530
38089626,531
38099637,528
38109678,527
38119720,521
38129728,523
38139772,517
38149814,518
38159830,511
38169875,512
38179920,506
38189966,502
38199979,502
38210022,506
38220065,496
38230074,507
38240110,498
38250146,499
38260157,503
38270198,496
38280239,496
38290249,503
38300292,504
38310336,501
38320348,502
38330392,510
38340436,507
38350447,502
38360490,503
38370533,511
38380544,508
38390583,508
38400626,510
38410638,503
38420681,505
38430721,502
38440762,508
38450770,504
38460807,506
38470847,509
38480857,506
38490897,502
38500937,501
38510950,506
38520992,499
38531033,504
38541047,499
38551089,505
38561133,499
38571147,497
38581191,498
38591235,500
38601249,501
38611291,503
38621330,500
38631340,508
38641381,504
38651419,500
38661430,499
38671482,507
38681534,504
38691585,505
38701607,498
38711659,503
38721714,506
38731736,505
38741788,505
38751840,506
38761858,503
38771909,507
38781955,505
38791969,510
38802015,511
38812061,511
38822074,516
38832119,514
38842162,515
38852174,519
38862219,523
38872265,520
38882280,523
38892328,519
38902376,520
38912398,511
38922447,515
38932495,513
38942545,508
38952562,509
38962610,499
38972658,502
38982674,500
38992725,502
39002772,501
39012787,494
39022833,495
39032876,496
39042891,501
39052934,494
39062975,504
39072988,502
39083035,503
39093085,499
39103102,507
39113150,506
39123198,509
39133208,502
39143249,503
39153293,507
39163305,506
39173347,508
39183389,508
39193433,502
39203446,507
39213485,501
39223523,506
39233535,505
39243578,506
39253618,500
39263629,500
39273664,500
39283701,504
39293712,503
39303755,499
39313794,504
39323800,502
39333839,507
39343880,506
39353891,506
39363933,501
39373976,499
39383991,502
39394034,507
39404077,505
39414091,507
39424133,508
39434174,504
39444219,501
39454235,505
39464279,507
39474322,503
39484336,505
39494380,507
39504422,504
39514431,512
39524470,512
39534510,517
39544520,522
39554560,520
39564600,524
39574612,524
39584655,525
39594698,528
39604713,525
39614758,520
39624802,519
39634812,514
39644856,516
39654898,519
39664911,516
39674954,512
39684998,512
39695041,510
39705056,510
39715094,504
39725135,506
39735147,508
39745187,503
39755227,501
39765241,505
39775283,508
39785323,506
39795333,511
39805373,508
39815414,502
39825427,509
39835469,510
39845508,509
39855521,510
39865563,504
39875608,509
39885622,511
39895663,509
39905701,506
39915711,508
39925748,505
39935787,505
39945827,507
39955837,506
39965876,504
39975915,503
39985925,503
39995963,502
40006003,508
40016011,500
40026049,502
40036088,504
40046097,502
40056136,499
40066174,509
40076180,506
40086219,506
40096257,506
40106266,502
40116303,504
40126343,499
40136355,508
40146395,506
40156438,507
40166446,503
40176486,502
40186525,508
40196564,511
40206573,509
40216613,519
40226654,522
40236666,519
40246706,519
40256748,530
40266757,525
40276797,536
40286838,535
40296847,531
40306888,534
40316925,534
40326932,533
40336965,534
40346999,525
40357010,524
40367047,521
40377084,520
40387097,511
40397143,517
40407190,513
40417203,512
40427242,511
40437281,509
40447312,501
40457320,505
40467358,502
40477395,499
40487404,499
40497443,507
40507480,506
40517490,507
40527529,506
40537569,507
40547579,507
40557616,509
40567656,507
40577662,510
40587701,505
40597736,507
40607745,505
40617786,513
40627827,513
40637837,508
40647880,503
40657925,504
40667940,505
40677988,507
40688037,506
40698085,509
40708100,500
40718147,503
40728199,505
40738217,499
40748266,499
40758308,500
40768321,500
40778368,499
40788417,501
40798433,506
40808484,507
40818533,507
40828550,503
40838598,505
40848645,509
40858664,511
40868710,507
40878752,510
40888765,510
40898807,512
40908848,507
40918859,510
40928901,511
40938941,515
40948984,522
40958997,525
40969041,524
40979078,528
40989089,530
40999131,529
41009174,528
41019187,522
41029229,524
41039274,523
41049285,516
41059324,518
41069365,518
41079377,517
41089419,518
41099457,515
41109471,513
41119519,513
41129564,510
41139576,506
41149624,506
41159670,500
41169683,508
41179727,503
41189773,502
41199817,502
41209831,503
41219877,495
41229923,503
41239938,505
41249983,507
41260028,499
41270042,508
41280084,508
41290126,501
41300139,502
41310184,510
41320226,507
41330234,499
41340276,502
41350316,507
41360324,506
41370363,506
41380404,502
41390415,506
41400457,505
41410500,500
41420513,501
41430558,497
41440604,505
41450649,500
41460664,498
41470710,503
41480753,504
41490762,506
41500807,500
41510844,502
41520855,505
41530897,504
41540938,499
41550948,505
41560990,503
41571035,505
41581048,507
41591092,507
41601135,504
41611148,501
41621191,509
41631232,507
41641243,503
41651287,504
41661330,506
41671344,507
41681389,509
41691436,514
41701482,510
41711494,516
41721536,522
41731579,525
41741588,521
41751629,525
41761668,523
41771677,516
41781720,521
41791763,520
41801779,514
41811824,516
41821869,508
41831879,510
41841923,508
41851966,503
41861975,504
41872022,504
41882067,498
41892080,500
41902122,498
41912166,500
41922181,504
41932225,501
41942267,500
41952310,498
41962325,502
41972370,503
41982417,500
41992432,506
42002476,506
42012523,507
42022536,506
42032577,507
42042617,502
42052628,504
42062672,505
42072718,506
42082736,505
42092783,501
42102830,504
42112847,501
42122892,501
42132935,502
42142949,503
42153001,504
42163052,497
42173077,496
42183128,502
42193180,498
42203230,506
42213251,505
42223301,498
42233352,500
42243374,504
42253429,507
42263482,503
42273501,505
42283547,504
42293593,506
42303610,503
42313655,505
42323705,505
42333719,502
42343764,503
42353816,508
42363835,504
42373884,502
42383934,507
42393957,510
42404010,506
42414061,501
42424080,502
42434129,504
42444178,512
42454228,512
42464248,512
42474299,519
42484344,518
42494363,514
42504411,518
42514459,517
42524477,513
42534523,510
42544570,508
42554588,510
42564636,512
42574688,510
42584708,510
42594760,507
42604812,506
42614830,504
42624882,508
42634935,506
42644955,498
42655006,506
42665057,505
42675077,500
42685128,505
42695179,506
42705228,504
42715249,500
42725300,501
42735350,506
42745368,506
42755412,506
42765461,507
42775482,504
42785534,504
42795581,508
42805600,508
42815648,508
42825695,504
42835712,510
42845754,505
42855791,506
42865802,507
42875844,504
42885893,504
42895912,504
42905959,504
42916007,502
42926022,502
42936070,505
42946112,506
42956157,505
42966172,503
42976215,502
42986262,502
42996277,507
43006320,507
43016363,499
43026373,506
43036416,499
43046457,507
43056471,508
43066519,505
43076567,505
43086584,508
43096630,502
43106675,510
43116688,503
43126736,509
43136785,504
43146801,508
43156850,512
43166896,508
43176909,508
43186954,511
43196996,509
43207041,512
43217058,511
43227106,510
43237151,511
43247162,510
43257204,514
43267248,512
43277261,513
43287305,511
43297350,502
43307367,511
43317411,510
43327452,505
43337467,502
43347513,503
43357559,508
43367574,510
43377616,504
43387662,502
43397676,507
43407719,506
43417762,508
43427777,508
43437825,505
43447871,507
43457915,508
43467930,504
43477979,504
43488026,506
43498041,510
43508090,510
43518136,505
43528153,507
43538204,510
43548254,509
43558264,507
43568309,501
43578357,505
43588370,508
43598416,507
43608464,501
43618480,507
43628527,505
43638575,509
43648592,508
43658641,506
43668685,506
43678700,505
43688744,505
43698789,500
43708835,501
43718852,505
43728897,503
43738944,509
43748958,502
43759006,500
43769056,508
43779078,510
43789129,501
43799178,502
43809198,500
43819248,507
43829296,507
43839312,503
43849360,511
43859405,504
43869417,508
43879464,507
43889511,511
43899529,515
43909574,514
43919618,513
43929630,511
43939676,514
43949723,509
43959768,513
43969783,515
43979831,513
43989873,511
43999883,511
44009923,504
44019963,512
44029974,504
44040017,505
44050058,508
44060070,507
44070113,507
44080154,508
44090163,504
44100206,507
44110246,507
44120255,508
44130297,503
44140337,501
44150348,505
44160389,504
44170428,505
44180443,505
44190485,504
44200530,511
44210576,511
44220590,505
44230631,507
44240669,510
44250680,502
44260724,509
44270770,504
44280781,509
44290823,506
44300865,511
44310874,505
44320915,509
44330959,511
44340973,509
44351016,503
44361058,506
44371070,507
44381113,507
44391156,508
44401169,508
44411210,509
44421251,506
44431264,505
44441307,503
44451351,508
44461394,506
44471406,508
44481451,506
44491494,510
44501506,504
44511551,505
44521594,501
44531609,510
44541650,509
44551692,509
44561701,509
44571744,509
44581789,501
44591802,509
44601844,501
44611888,503
44621901,511
44631943,509
44641984,512
44651997,513
44662038,514
44672079,511
44682091,511
44692133,519
44702173,515
44712212,516
44722223,513
44732269,512
44742313,513
44752322,517
44762364,514
44772406,515
44782418,508
44792460,513
44802502,511
44812516,511
44822563,509
44832609,508
44842624,512
44852669,509
44862716,509
44872731,510
44882780,507
44892828,504
44902846,509
44912894,508
44922941,505
44932955,507
44943003,508
44953049,510
44963095,511
44973107,510
44983150,512
44993195,508
45003210,507
45013253,509
45023299,510
45033315,507
45043359,508
45053406,508
45063419,503
45073460,507
45083504,508
45093517,510
45103560,509
45113604,505
45123616,510
45133660,507
45143707,504
45153719,509
45163763,508
45173806,505
45183822,511
45193868,506
45203909,511
45213953,508
45223970,510
45234011,508
45244054,511
45254066,508
45264111,508
45274152,510
45284165,507
45294208,502
45304249,511
45314260,505
45324300,510
45334340,507
45344350,508
45354394,507
45364437,500
45374451,506
45384497,501
45394542,507
45404557,511
45414603,511
45424649,508
45434666,509
45444711,509
45454756,509
45464802,513
45474816,516
45484864,511
45494910,518
45504924,521
45514971,518
45525017,519
45535028,522
45545071,526
45555118,525
45565135,517
45575186,520
45585233,518
45595247,515
45605291,523
45615338,513
45625352,521
45635399,515
45645446,513
45655461,512
45665506,512
45675546,516
45685558,510
45695601,511
45705646,503
45715693,511
45725712,512
45735762,505
45745806,513
45755822,508
45765866,508
45775910,511
45785925,506
45795967,512
45806011,513
45816023,508
45826064,514
45836107,505
45846119,513
45856161,512
45866205,510
45876220,510
45886264,508
45896304,510
45906318,510
45916367,505
45926413,507
45936429,510
45946477,507
45956525,511
45966575,517
45976593,509
45986643,510
45996693,528
46006713,506
46016762,506
46026812,501
46036829,506
46046877,507
46056930,509
46066952,508
46077004,507
46087052,508
46097073,508
46107120,508
46117165,506
46127185,509
46137232,510
46147279,506
46157294,501
46167340,503
46177385,504
46187402,504
46197449,502
46207496,508
46217543,506
46227558,506
46237605,506
46247657,503
46257680,507
46267732,509
46277785,509
46287809,508
46297863,510
46307915,508
46317935,505
46327983,505
46338027,507
46348042,506
46358090,507
46368135,505
46378150,508
46388197,508
46398245,503
46408261,506
46418307,511
46428353,510
46438364,512
46448407,519
46458453,524
46468499,530
46478515,531
46488560,532
46498606,529
46508624,532
46518671,528
46528719,526
46538734,530
46548781,522
46558827,522
46568843,523
46578891,522
46588938,519
46598950,520
46608994,513
46619035,512
46629049,508
46639098,513
46649146,514
46659162,504
46669209,502
46679256,502
46689275,507
46699324,501
46709371,506
46719424,508
46729445,510
46739493,506
46749546,511
46759573,510
46769629,505
46779689,504
46789716,510
46799768,512
46809815,509
46819834,507
46829881,509
46839927,507
46849943,507
46859990,511
46870037,508
46880055,508
46890103,504
46900150,503
46910167,506
46920216,499
46930262,505
46940278,502
46950328,505
46960377,509
46970424,507
46980441,507
46990487,502
47000531,509
47010543,509
47020590,508
47030638,508
47040654,502
47050699,505
47060742,505
47070758,507
47080803,503
47090850,509
47100867,505
47110915,508
47120962,507
47130976,507
47141023,511
47151070,509
47161085,510
47171128,504
47181173,505
47191186,505
47201233,508
47211277,504
47221323,509
47231337,504
47241382,509
47251426,502
47261442,507
47271490,507
47281538,509
47291557,515
47301608,515
47311660,524
47321682,533
47331734,537
47341787,541
47351808,543
47361856,538
47371905,540
47381917,536
47391965,532
47402014,529
47412033,529
47422078,524
47432129,523
47442149,519
47452200,516
47462250,512
47472297,510
47482317,506
47492366,504
47502409,503
47512424,506
47522470,502
47532516,503
47542531,499
47552577,504
47562623,497
47572640,501
47582686,505
47592730,502
47602743,508
47612786,507
47622831,508
47632846,512
47642893,509
47652939,506
47662957,506
47673007,509
47683056,507
47693074,500
47703120,508
47713164,506
47723210,508
47733224,507
47743270,501
47753312,499
47763325,501
47773368,506
47783410,505
47793423,500
47803466,497
47813516,507
47823537,505
47833586,506
47843630,508
47853645,501
47863690,501
47873733,506
47883743,507
47893789,508
47903833,507
47913846,509
47923890,504
47933935,508
47943951,504
47953994,506
47964040,507
47974089,501
47984107,507
47994151,510
48004197,507
48014215,501
48024264,502
48034311,508
48044329,508
48054380,504
48064427,509
48074441,508
48084482,503
48094530,508
48104551,508
48114599,507
48124647,509
48134664,507
48144714,506
48154761,508
48164776,510
48174824,508
48184874,515
48194891,523
48204938,529
48214987,533
48225034,534
48235050,537
48245097,536
48255144,533
48265159,538
48275205,532
48285252,528
48295270,528
48305317,515
48315364,515
48325382,514
48335429,507
48345475,504
48355492,504
48365539,499
48375584,499
48385599,502
48395644,498
48405692,501
48415708,504
48425755,500
48435803,499
48445823,498
48455869,507
48465918,504
48475965,502
48485983,505
48496034,506
48506085,511
48516106,508
48526158,510
48536206,508
48546223,508
48556271,508
48566315,506
48576332,506
48586379,505
48596427,506
48606444,500
48616492,507
48626545,505
48636565,506
48646615,503
48656663,501
48666681,504
48676730,498
48686777,507
48696793,504
48706840,503
48716889,505
48726936,501
48736951,502
48746999,504
48757047,508
48767064,504
48777113,500
48787162,503
48797181,501
48807228,503
48817276,503
48827293,501
48837340,499
48847390,504
48857408,501
48867458,505
48877504,501
48887518,506
48897565,500
48907610,502
48917624,506
48927674,506
48937727,501
48947743,505
48957790,499
48967836,501
48977884,501
48987898,506
48997948,503
49007997,504
49018016,507
49028065,501
49038114,508
49048128,502
49058176,504
49068222,519
49078237,515
49088283,516
49098330,524
49108348,529
49118396,533
49128444,536
49138464,531
49148512,538
49158562,536
49168577,525
49178622,525
49188666,526
49198679,522
49208721,514
49218762,510
49228807,511
49238822,508
49248868,503
49258912,498
49268925,501
49278968,499
49289011,499
49299025,501
49309069,496
49319112,503
49329125,500
49339169,504
49349211,505
49359223,508
49369268,504
49379315,506
49389333,509
49399383,508
49409431,504
49419448,511
49429495,505
49439542,503
49449554,512
49459597,506
49469639,503
49479682,502
49489698,501
49499744,505
49509788,504
49519801,502
49529845,506
49539890,504
49549906,504
49559951,503
49569994,505
49580007,503
49590053,507
49600097,506
49610111,505
49620159,505
49630205,506
49640220,504
49650266,507
49660313,500
49670329,508
49680377,508
49690426,508
49700442,504
49710489,505
49720536,501
49730580,501
49740594,508
49750639,508
49760683,508
49770696,511
49780739,504
49790783,499
49800796,504
49810845,505
49820892,503
49830909,503
49840957,499
49851006,509
49861023,505
49871070,508
49881118,502
49891135,504
49901185,506
49911236,499
49921253,507
49931301,509
49941346,506
49951359,502
49961403,516
49971450,516
49981497,522
49991512,527
50001558,533
50011602,535
50021617,536
50031658,535
50041701,529
50051716,529
50061762,531
50071811,519
50081830,518
50091878,512
50101923,510
50111940,505
50121985,508
50132030,507
50142045,505
50152091,502
50162138,499
50172152,503
50182195,500
50192238,497
50202253,506
50212299,506
50222347,499
50232391,503
50242407,510
50252453,511
50262500,511
50272516,510
50282560,510
50292606,508
50302621,514
50312667,512
50322711,505
50332728,511
50342774,509
50352817,505
50362833,521
50372877,500
50382920,501
50392937,520
50402981,500
50413022,506
50423036,500
50433081,506
50443125,498
50453143,504
50463190,507
50473234,506
50483281,508
50493296,504
50503340,502
50513386,508
50523401,504
50533446,509
50543490,500
50553503,502
50563545,503
50573590,502
50583604,503
50593647,505
50603689,503
50613705,510
50623749,507
50633794,507
50643809,506
50653856,507
50663904,509
50673920,506
50683965,509
50694009,509
50704021,508
50714066,509
50724110,508
50734152,504
50744166,507
50754209,502
50764252,509
50774267,511
50784315,513
50794360,514
50804378,526
50814426,530
50824474,533
50834490,531
50844535,526
50854581,532
50864596,525
50874643,528
50884687,523
50894701,523
50904745,518
50914789,515
50924803,512
50934849,510
50944896,506
50954911,506
50964957,496
50975003,504
50985049,502
50995065,505
51005114,498
51015162,501
51025177,497
51035225,501
51045273,504
51055290,508
51065340,514
51075385,514
51085396,511
51095437,512
51105474,511
51115485,507
51125528,512
51135570,515
51145584,510
51155629,505
51165672,502
51175683,501
51185724,507
51195765,506
51205777,507
51215822,504
51225867,499
51235911,500
51245926,506
51255974,503
51266022,506
51276044,509
51286096,508
51296147,503
51306165,503
51316212,505
51326259,507
51336274,510
51346323,509
51356368,507
51366382,503
51376427,510
51386472,511
51396488,508
51406534,509
51416581,509
51426597,504
51436639,503
51446683,510
51456697,504
51466741,510
51476788,503
51486838,504
51496856,509
51506906,509
51516956,505
51526969,509
51537009,511
51547056,519
51557073,526
51567120,529
51577167,531
51587184,534
51597231,536
51607278,540
51617294,536
51627342,532
51637389,531
51647402,527
51657444,525
51667489,516
51677505,518
51687550,510
51697601,513
51707614,511
51717658,500
51727704,506
51737750,507
51747766,503
51757811,501
51767857,500
51777872,506
51787913,506
51797959,505
51807975,503
51818021,504
51828066,504
51838083,508
51848130,511
51858175,513
51868190,509
51878233,510
51888276,512
51898288,509
51908331,503
51918380,507
51928395,512
51938439,507
51948488,506
51958508,500
51968556,504
51978602,503
51988647,505
51998666,507
52008712,505
52018761,507
52028776,505
52038819,498
52048864,508
52058874,503
52068918,510
52078962,506
52088978,508
52099024,508
52109070,507
52119083,507
52129132,507
52139179,508
52149196,509
52159242,509
52169292,509
52179310,510
52189357,503
52199407,505
52209425,507
52219473,506
52229524,507
52239571,503
52249587,505
52259630,509
52269675,509
52279690,509
52289737,517
52299780,520
52309798,528
52319844,532
52329890,534
52339904,539
52349950,538
52359998,535
52370017,540
52380062,529
52390104,532
52400117,526
52410166,522
52420217,522
52430238,512
52440286,515
52450331,513
52460348,511
52470397,510
52480444,507
52490491,508
52500505,498
52510549,504
52520591,502
52530604,499
52540644,499
52550682,503
52560691,503
52570731,504
52580773,507
52590782,509
52600826,507
52610869,510
52620879,503
52630920,512
52640963,512
52650974,509
52661018,509
52671062,509
52681075,503
52691118,508
52701159,509
52711166,503
52721206,503
52731248,498
52741294,501
52751305,502
52761345,502
52771387,503
52781397,503
52791440,501
52801484,506
52811498,505
52821543,504
52831587,509
52841599,504
52851643,502
52861688,500
52871702,505
52881745,504
52891788,506
52901801,509
52911844,508
52921886,508
52931898,506
52941943,506
52951985,502
52961991,509
52972034,501
52982077,499
52992117,510
53002128,506
53012168,509
53022208,499
53032221,507
53042261,499
53052306,503
53062315,509
53072354,507
53082395,513
53092405,516
53102446,517
53112490,526
53122502,529
53132543,534
53142588,537
53152603,539
53162648,537
53172692,534
53182706,536
53192751,531
53202791,527
53212804,523
53222849,516
53232888,512
53242933,508
53252943,511
53262984,508
53273026,502
53283039,503
53293083,506
53303125,503
53313137,501
53323179,501
53333223,503
53343235,502
53353275,503
53363319,505
53373333,508
53383376,510
53393419,505
53403434,509
53413474,505
53423516,510
53433526,511
53443570,503
53453614,512
53463630,506
53473674,508
53483718,506
53493763,504
53503774,509
53513819,503
53523865,508
53533879,506
53543922,506
53553967,504
53563980,507
53574023,503
53584068,507
53594081,507
53604125,498
53614168,502
53624182,507
53634226,502
53644273,508
53654289,506
53664336,502
53674382,501
53684398,507
53694443,507
53704488,504
53714499,504
53724541,507
53734586,508
53744631,508
53754645,502
53764690,505
53774732,505
53784742,506
53794786,508
53804827,501
53814840,501
53824883,503
53834923,502
53844936,505
53854978,507
53865020,505
53875031,503
53885073,504
53895112,499
53905122,507
53915162,506
53925202,502
53935213,500
53945253,503
53955297,508
53965310,512
53975353,509
53985396,520
53995440,520
54005449,530
54015492,525
54025534,536
54035549,534
54045593,536
54055639,530
54065654,525
54075699,528
54085745,521
54095759,523
54105803,513
54115845,511
54125859,509
54135905,510
54145952,504
54155966,503
54166011,506
54176055,496
54186069,499
54196117,504
54206163,503
54216178,500
54226223,498
54236268,504
54246312,505
54256327,503
54266373,508
54276417,505
54286429,510
54296475,512
54306518,509
54316530,507
54326575,511
54336620,512
54346635,504
54356680,510
54366724,505
54376740,503
54386781,508
54396827,506
54406842,508
54416885,504
54426924,507
54436934,506
54446979,504
54457024,502
54467038,507
54477081,506
54487128,506
54497173,504
54507182,499
54517221,501
54527262,508
54537273,509
54547314,511
54557356,501
54567369,503
54577414,509
54587455,507
54597463,505
54607505,508
54617547,503
54627561,501
54637603,508
54647647,509
54657657,505
54667699,504
54677743,507
54687756,506
54697799,501
54707846,508
54717862,499
54727907,507
54737950,508
54747993,508
54758004,500
54768046,503
54778090,507
54788104,507
54798150,507
54808192,500
54818204,506
54828250,514
54838295,513
54848310,521
54858355,524
54868399,526
54878414,533
54888460,531
54898508,532
54908529,532
54918575,527
54928618,523
54938632,520
54948678,520
54958725,517
54968742,514
54978788,503
54988836,509
54998883,500
55008900,505
55018948,503
55028998,503
55039021,500
55049071,498
55059119,504
55069140,502
55079192,502
55089243,501
55099262,506
55109311,507
55119361,505
55129381,509
55139430,510
55149480,511
55159500,508
55169550,510
55179598,504
55189615,509
55199665,507
55209714,509
55219734,507
55229784,507
55239830,503
55249879,508
55259899,508
55269954,503
55280006,504
55290026,505
55300078,504
55310128,498
55320145,504
55330196,507
55340248,506
55350268,506
55360318,504
55370368,502
55380384,509
55390431,507
55400480,509
55410495,507
55420541,508
55430588,508
55440603,500
55450643,501
55460687,502
55470703,503
55480750,504
55490795,506
55500841,508
55510855,506
55520902,507
55530946,503
55540958,508
55550997,506
55561038,506
55571046,508
55581087,505
55591130,508
55601142,506
55611187,508
55621230,507
55631239,503
55641284,504
55651326,508
55661342,510
55671387,515
55681431,520
55691443,519
55701480,519
55711519,528
55721530,528
55731574,524
55741619,532
55751660,529
55761673,532
55771715,521
55781757,527
55791767,523
55801812,518
55811854,514
55821863,506
55831905,506
55841949,505
55851962,507
55862005,507
55872049,504
55882060,500
55892104,507
55902149,502
55912163,505
55922207,499
55932251,499
55942266,499
55952314,499
55962360,504
55972375,507
55982420,509
55992464,507
56002504,503
56012519,504
56022564,506
56032610,511
56042626,510
56052671,512
56062718,503
56072734,504
56082781,508
56092826,508
56102839,507
56112884,505
56122929,502
56132943,501
56142988,506
56153032,498
56163045,501
56173089,506
56183136,506
56193150,504
56203195,501
56213244,508
56223264,507
56233312,502
56243360,508
56253411,504
56263430,503
56273479,506
56283525,505
56293539,506
56303583,510
56313624,510
56323637,509
56333684,507
56343731,506
56353747,505
56363793,508
56373841,509
56383855,503
56393902,504
56403947,510
56413956,500
56423999,507
56434045,506
56444058,503
56454105,505
56464148,508
56474161,508
56484210,508
56494257,504
56504304,503
56514318,511
56524359,513
56534402,519
56544415,524
56554456,527
56564497,531
56574503,531
56584542,533
56594581,527
56604594,535
56614639,532
56624685,526
56634698,520
56644743,521
56654783,521
56664793,514
56674835,514
56684878,512
56694891,512
56704937,510
56714981,508
56724995,502
56735037,508
56745083,499
56755128,508
56765144,506
56775187,502
56785230,504
56795244,498
56805291,502
56815334,502
56825349,507
56835396,506
56845442,504
56855455,510
56865498,506
56875547,503
56885562,505
56895605,503
56905651,507
56915666,508
56925712,506
56935759,501
56945773,500
56955816,508
56965859,506
56975878,499
56985927,504
56995974,505
57006020,507
57016033,501
57026077,505
57036118,503
57046129,506
57056173,501
57066217,504
57076229,503
57086271,507
57096312,508
57106321,505
57116363,505
57126405,506
57136415,511
57146456,507
57156499,509
57166512,503
57176556,503
57186598,503
57196607,508
57206649,509
57216687,510
57226700,508
57236745,510
57246789,506
57256835,505
57266849,506
57276891,509
57286932,507
57296941,508
57306984,504
57317028,506
57327038,503
57337079,509
57347119,510
57357128,508
57367165,508
57377207,515
57387217,515
57397257,523
57407301,527
57417312,528
57427351,534
57437390,531
57447400,533
57457443,530
57467480,532
57477489,527
57487529,527
57497570,520
57507613,520
57517623,517
57527661,514
57537696,510
57547704,511
57557743,507
57567782,508
57577792,508
57587832,504
57597872,507
57607879,498
57617917,507
57627959,503
57637967,497
57648005,507
57658045,505
57668054,508
57678096,510
57688138,512
57698147,511
57708184,508
57718221,508
57728231,511
57738272,509
57748316,511
57758359,509
57768372,505
57778416,505
57788459,499
57798472,499
57808514,503
57818558,505
57828575,505
57838623,503
57848668,502
57858683,504
57868729,500
57878770,498
57888783,509
57898827,499
57908870,502
57918884,505
57928928,506
57938971,505
57948987,506
57959032,503
57969076,503
57979088,510
57989130,505
57999173,503
58009217,503
58019230,501
58029275,505
58039317,507
58049327,503
58059369,509
58069410,507
58079420,502
58089463,510
58099506,510
58109515,503
58119557,505
58129600,499
58139610,508
58149653,501
58159695,492
58169707,507
58179749,510
58189792,506
58199806,506
58209851,504
58219895,507
58229907,502
58239951,513
58249991,514
58260032,513
58270042,526
58280083,525
58290120,527
58300127,534
58310165,529
58320202,529
58330213,527
58340254,527
58350296,526
58360308,519
58370353,514
58380400,512
58390414,509
58400459,504
58410504,504
58420519,506
58430565,506
58440612,502
58450626,504
58460674,506
58470723,498
58480741,503
58490785,506
58500830,499
58510874,499
58520886,507
58530931,505
58540974,509
58550988,503
58561031,513
58571076,510
58581088,505
58591129,510
58601170,507
58611181,505
58621221,508
58631263,509
58641271,507
58651312,510
58661355,500
58671366,502
58681410,508
58691454,506
58701466,505
58711506,502
58721547,499
58731553,506
58741591,508
58751627,501
58761666,509
58771676,505
58781714,507
58791755,509
58801764,509
58811804,511
58821843,503
58831852,508
58841893,507
58851935,510
58861944,511
58871984,507
58882025,509
58892031,503
58902068,499
58912107,508
58922116,508
58932159,503
58942200,506
58952214,509
58962261,502
58972307,505
58982320,504
58992362,508
59002403,509
59012443,504
59022450,505
59032488,503
59042523,506
59052529,508
59062569,499
59072611,505
59082624,512
59092665,509
59102704,517
59112711,517
59122751,515
59132791,524
59142799,532
59152836,533
59162875,534
59172883,533
59182920,530
59192956,525
59202964,524
59213003,515
59223038,516
59233045,514
59243082,510
59253118,507
59263158,506
59273165,510
59283203,506
59293244,509
59303253,504
59313293,501
59323331,504
59333339,504
59343378,499
59353422,506
59363437,504
59373476,505
59383518,506
59393525,500
59403564,511
59413605,505
59423618,512
59433660,511
59443702,506
59453711,504
59463753,511
59473794,511
59483802,503
59493843,502
59503880,507
59513917,508
59523926,501
59533968,504
59544008,505
59554017,506
59564055,508
59574093,505
59584099,503
59594134,501
59604172,501
59614180,507
59624218,506
59634257,500
59644263,510
59654297,502
59664332,508
59674340,506
59684383,506
59694427,500
59704440,505
59714482,508
59724521,509
59734528,508
59744567,506
59754607,502
59764647,501
59774656,503
59784696,507
59794732,503
59804741,510
59814785,507
59824825,505
59834831,504
59844869,508
59854909,508
59864916,505
59874958,514
59884999,513
59895010,518
59905052,523
59915092,529
59925100,527
59935140,532
59945182,526
59955192,523
59965233,520
59975277,521
59985291,524
59995332,518
60005374,518
60015418,513
60025430,504
60035470,509
60045505,508
60055511,508
60065549,506
60075592,505
60085604,501
60095645,505
60105686,502
60115695,502
60125735,506
60135776,500
60145788,506
60155829,507
60165874,508
60175887,511
60185930,506
60195974,511
60205988,503
60216029,505
60226072,511
60236085,508
60246127,510
60256169,508
60266210,505
60276222,500
60286263,504
60296302,500
60306309,502
60316345,502
60326385,507
60336393,502
60346434,505
60356472,507
60366478,509
60376516,499
60386557,504
60396567,505
60406609,500
60416652,501
60426662,507
60436705,501
60446749,500
60456762,510
60466802,504
60476847,511
60486862,510
60496904,509
60506948,503
60516995,509
60527012,511
60537059,510
60547105,505
60557117,509
60567157,503
60577202,501
60587219,508
60597266,501
60607310,503
60617323,510
60627370,511
60637414,518
60647427,515
60657472,522
60667518,530
60677534,524
60687580,534
60697626,536
60707646,528
60717696,531
60727743,522
60737759,527
60747807,517
60757855,517
60767903,520
60777920,508
60787969,508
60798014,514
60808029,511
60818075,508
60828121,507
60838135,499
60848181,507
60858228,506
60868245,504
60878293,506
60888342,505
60898360,506
60908407,506
60918454,507
60928471,504
60938519,510
60948568,507
60958582,503
60968626,505
60978670,509
60988687,510
60998736,505
61008786,503
61018834,511
61028849,504
61038898,512
61048946,509
61058963,506
61069009,508
61079055,505
61089073,502
61099119,508
61109165,505
61119182,505
61129230,502
61139279,505
61149296,505
61159343,505
61169390,504
61179408,503
61189453,501
61199499,506
61209512,506
61219555,506
61229598,507
61239615,509
61249661,505
61259710,508
61269757,509
61279771,506
61289812,507
61299856,508
61309871,507
61319916,506
61329959,510
61339970,508
61350012,508
61360053,507
61370065,506
61380109,509
61390151,507
61400163,509
61410207,503
61420252,509
61430264,514
61440309,512
61450351,520
61460364,525
61470407,522
61480451,530
61490464,525
61500507,532
61510549,527
61520590,529
61530600,523
61540644,524
61550689,523
61560700,517
61570744,513
61580784,509
61590795,513
61600839,503
61610882,507
61620895,510
61630939,508
61640982,508
61650994,505
61661035,504
61671077,506
61681091,503
61691136,505
61701179,505
61711195,502
61721238,505
61731284,504
61741297,506
61751341,510
61761387,509
61771433,505
61781446,511
61791489,509
61801534,511
61811547,508
61821587,501
61831630,500
61841644,507
61851686,507
61861729,508
61871740,519
61881781,505
61891824,507
61901834,505
61911875,502
61921914,501
61931926,502
61941969,498
61952007,498
61962011,506
61972047,508
61982086,505
61992101,508
62002142,499
62012177,508
62022214,505
62032224,502
62042264,503
62052306,506
62062317,507
62072355,503
62082393,508
62092402,504
62102442,502
62112481,503
62122493,504
62132537,508
62142581,510
62152592,505
62162632,506
62172671,507
62182685,503
62192730,505
62202775,507
62212790,509
62222834,506
62232877,504
62242890,512
62252932,515
62262971,520
62273009,519
62283019,524
62293058,532
62303100,527
62313115,529
62323158,530
62333201,527
62343209,526
62353251,520
62363294,518
62373306,520
62383345,514
62393386,512
62403398,504
62413438,502
62423475,505
62433484,500
62443525,507
62453564,503
62463576,502
62473621,501
62483662,501
62493672,504
62503718,498
62513764,505
62523807,503
62533822,502
62543867,511
62553914,507
62563928,509
62573972,508
62584013,511
62594018,510
62604053,511
62614092,510
62624100,507
62634139,505
62644178,509
62654185,507
62664221,511
62674259,509
62684260,504
62694292,500
62704325,504
62714330,506
62724366,501
62734401,508
62744406,501
62754439,499
62764477,500
62774512,499
62784517,509
62794555,508
62804592,502
62814599,507
62824635,501
62834671,503
62844674,506
62854709,502
62864747,510
62874754,509
62884792,508
62894832,509
62904842,506
62914884,508
62924925,508
62934935,508
62944974,506
62955013,500
62965024,507
62975067,506
62985109,506
62995117,505
63005157,506
63015198,504
63025239,502
63035251,509
63045293,503
63055333,503
63065345,510
63075387,512
63085429,507
63095442,509
63105487,523
63115528,528
63125541,526
63135583,534
63145625,536
63155635,536
63165677,529
63175717,532
63185725,528
63195764,525
63205806,522
63215815,520
63225854,518
63235891,515
63245900,506
63255939,504
63265979,507
63276019,509
63286031,503
63296071,508
63306112,501
63316122,498
63326164,504
63336206,503
63346218,497
63356264,506
63366306,507
63376315,507
63386357,509
63396398,504
63406408,504
63416450,505
63426492,510
63436501,510
63446542,508
63456583,501
63466592,509
63476634,504
63486672,505
63496680,502
63506721,503
63516762,510
63526800,507
63536812,505
63546850,508
63556894,506
63566904,505
63576944,500
63586987,505
63597001,499
63607044,503
63617085,506
63627096,508
63637138,508
63647179,503
63657188,509
63667230,504
63677273,502
63687284,505
63697325,508
63707366,505
63717377,507
63727418,505
63737458,510
63747470,508
63757515,508
63767558,505
63777603,503
63787619,506
63797664,507
63807707,509
63817719,502
63827764,506
63837811,506
63847829,510
63857875,502
63867921,511
63877933,509
63887979,502
63898026,506
63908045,511
63918095,510
63928141,509
63938156,519
63948199,521
63958245,523
63968263,524
63978309,530
63988356,525
63998370,534
64008418,534
64018467,531
64028515,523
64038530,518
64048576,516
64058624,515
64068640,512
64078687,509
64088735,509
64098752,512
64108800,509
64118846,502
64128861,507
64138907,503
64148950,505
64158960,501
64169008,504
64179052,499
64189068,499
64199115,506
64209161,508
64219178,504
64229220,502
64239260,509
64249270,511
64259309,505
64269349,506
64279385,506
64289397,503
64299438,511
64309479,508
64319489,509
64329528,504
64339566,508
64349578,508
64359617,507
64369651,504
64379656,503
64389698,509
64399740,506
64409757,506
64419802,505
64429845,506
64439859,507
64449905,504
64459949,499
64469965,506
64480011,507
64490054,503
64500067,507
64510111,505
64520154,507
64530196,502
64540204,511
64550246,508
64560291,506
64570305,508
64580347,498
64590389,509
64600402,506
64610446,508
64620492,500
64630505,501
64640550,505
64650596,509
64660611,505
64670655,507
64680698,508
64690712,505
64700756,510
64710797,508
64720807,510
64730844,509
64740880,509
64750886,503
64760923,507
64770961,507
64781005,511
64791018,514
64801061,517
64811105,521
64821117,521
64831160,527
64841204,524
64851216,529
64861260,531
64871303,535
64881314,530
64891353,526
64901392,518
64911405,517
64921448,517
64931489,516
64941499,512
64951542,513
64961586,506
64971597,509
64981636,499
64991676,503
65001685,507
65011725,502
65021766,504
65031810,506
65041822,504
65051858,501
65061898,505
65071911,503
65081951,507
65091992,504
65102004,508
65112047,500
65122087,509
65132095,505
65142134,507
65152171,509
65162183,511
65172227,506
65182271,504
65192282,506
65202329,506
65212376,482
65222387,508
65232432,507
65242473,510
65252485,504
65262527,504
65272570,500
65282616,508
65292629,506
65302672,505
65312713,499
65322723,499
65332761,508
65342804,508
65352814,509
65362853,511
65372892,508
65382901,505
65392938,500
65402976,509
65412985,510
65423024,506
65433065,501
65443074,504
65453115,504
65463157,504
65473165,499
65483206,501
65493250,501
65503263,503
65513305,505
65523348,507
65533397,503
65543412,501
65553455,509
65563500,505
65573515,507
65583559,504
65593601,508
65603613,500
65613657,502
65623701,503
65633717,512
65643761,516
65653804,518
65663817,519
65673859,520
65683904,523
65693915,531
65703959,528
65714002,522
65724016,526
65734060,527
65744104,523
65754116,523
65764157,518
65774199,508
65784240,512
65794250,507
65804293,508
65814338,507
65824351,499
65834393,501
65844430,505
65854439,503
65864477,499
65874514,496
65884521,505
65894560,507
65904596,484
65914602,508
65924641,506
65934679,510
65944687,507
65954725,512
65964764,506
65974773,513
65984811,511
65994851,511
66004861,512
66014900,511
66024942,510
66034983,509
66044991,511
66055031,501
66065070,510
66075082,505
66085126,506
66095169,508
66105179,505
66115224,508
66125265,507
66135276,505
66145318,510
66155359,507
66165371,506
66175416,503
66185460,512
66195473,505
66205515,504
66215559,508
66225570,505
66235614,510
66245657,503
66255668,507
66265712,508
66275755,512
66285798,502
66295809,505
66305853,508
66315895,503
66325909,509
66335952,504
66345993,509
66356003,503
66366044,507
66376087,505
66386100,500
66396140,515
66406178,510
66416186,511
66426226,509
66436267,511
66446281,512
66456326,518
66466370,524
66476384,524
66486427,524
66496470,535
66506483,530
66516526,522
66526567,528
66536608,525
66546619,520
66556661,518
66566704,515
66576718,514
66586761,510
66596802,501
66606813,500
66616855,499
66626897,502
66636906,502
66646948,506
66656990,503
66666999,504
66677039,496
66687082,505
66697093,507
66707136,502
66717179,508
66727190,510
66737230,509
66747272,512
66757280,510
66767319,506
66777358,508
66787399,509
66797410,513
66807451,509
66817490,509
66827501,508
66837544,501
66847587,509
66857598,507
66867639,506
66877681,510
66887693,508
66897734,506
66907776,508
66917787,502
66927831,508
66937874,506
66947886,508
66957926,504
66967969,508
66977980,505
66988019,505
66998063,504
67008076,509
67018122,508
67028169,510
67038215,506
67048229,506
67058274,506
67068322,505
67078339,503
67088384,509
67098431,509
67108449,507
67118496,506
67128542,506
67138555,501
67148599,508
67158643,508
67168655,503
67178697,507
67188739,508
67198751,510
67208792,511
67218834,512
67228842,517
67238881,519
67248917,528
67258924,529
67268965,527
67279005,529
67289042,532
67299051,525
67309095,524
67319139,521
67329148,519
67339191,516
67349234,509
67359245,504
67369286,508
67379327,507
67389338,508
67399380,508
67409424,505
67419437,504
67429479,502
67439520,498
67449532,504
67459576,503
67469616,505
67479625,508
67489664,509
67499706,508
67509718,508
67519761,510
67529805,509
67539851,505
67549864,509
67559908,509
67569950,505
67579963,508
67590005,509
67600048,506
67610062,508
67620107,504
67630152,501
67640162,506
67650205,508
67660250,504
67670264,505
67680310,506
67690357,507
67700370,506
67710416,503
67720461,507
67730473,507
67740516,506
67750559,506
67760572,508
67770615,504
67780658,503
67790700,509
67800712,506
67810755,510
67820798,509
67830809,511
67840855,507
67850903,503
67860919,511
67870963,504
67881008,507
67891021,508
67901065,510
67911108,503
67921122,509
67931164,510
67941207,506
67951221,508
67961264,509
67971310,510
67981325,509
67991373,514
68001416,512
68011426,518
68021465,520
68031510,529
68041553,531
68051562,535
68061606,534
68071651,533
68081666,531
68091710,529
68101751,523
68111760,520
68121804,517
68131849,517
68141860,512
68151903,510
68161944,512
68171952,509
68181996,510
68192038,507
68202052,507
68212098,501
68222147,500
68232166,499
68242210,507
68252255,506
68262268,500
68272309,502
68282352,505
68292395,509
68302407,507
68312452,502
68322495,508
68332508,509
68342551,505
68352593,505
68362606,504
68372644,508
68382687,512
68392699,509
68402737,507
68412774,505
68422783,507
68432821,507
68442860,503
68452871,503
68462908,504
68472948,506
68482956,508
68492995,504
68503036,509
68513045,501
68523085,507
68533126,507
68543168,505
68553182,510
68563224,507
68573267,511
68583281,502
68593324,506
68603364,508
68613378,505
68623424,508
68633470,506
68643482,509
68653524,501
68663569,505
68673583,508
68683627,501
68693671,506
68703685,506
68713732,508
68723778,505
68733791,506
68743836,508
68753882,504
68763894,509
68773936,508
68783981,511
68794024,513
68804036,516
68814075,519
68824113,522
68834123,528
68844164,529
68854203,534
68864213,535
68874256,533
68884298,531
68894309,531
68904350,527
68914386,519
68924392,515
68934430,517
68944468,508
68954478,511
68964517,508
68974555,510
68984557,506
68994589,503
69004624,508
69014632,507
69024669,506
69034712,502
69044755,502
69054768,502
69064810,506
69074852,506
69084862,504
69094901,508
69104941,509
69114947,504
69124988,503
69135031,512
69145046,507
69155088,512
69165131,509
69175146,507
69185189,506
69195231,504
69205245,500
69215285,507
69225328,505
69235338,500
69245380,502
69255422,499
69265432,506
69275474,500
69285516,506
69295558,500
69305572,503
69315613,507
69325656,506
69335669,507
69345713,500
69355749,503
69365758,504
69375800,509
69385840,504
69395850,506
69405891,504
69415933,507
69425943,509
69435984,504
69446023,503
69456034,509
69466073,508
69476115,504
69486127,506
69496170,509
69506213,505
69516225,504
69526267,507
69536309,506
69546354,507
69556365,506
69566406,503
69576445,502
69586456,503
69596497,499
69606538,508
69616549,509
69626589,507
69636629,512
69646639,516
69656679,526
69666716,524
69676728,535
69686769,535
69696816,538
69706832,536
69716876,531
69726919,530
69736934,527
69746979,523
69757022,520
69767034,518
69777076,517
69787119,506
69797162,511
69807172,509
69817214,511
69827252,510
69837263,502
69847308,508
69857351,508
69867365,500
69877413,508
69887461,499
69897476,501
69907522,504
69917565,508
69927576,505
69937620,500
69947664,509
69957678,510
69967718,503
69977762,506
69987775,508
69997821,509
70007863,506
70017879,505
70027926,511
70037974,505
70048024,507
70058041,502
70068089,504
70078139,502
70088157,505
70098206,506
70108252,506
70118268,506
70128313,505
70138361,508
70148379,504
70158424,500
70168468,504
70178484,499
70188530,504
70198574,509
70208588,505
70218632,501
70228677,503
70238694,508
70248739,506
70258784,506
70268800,508
70278848,508
70288895,499
70298940,503
70308951,507
70318997,508
70329042,510
70339054,500
70349092,505
70359133,499
70369147,508
70379192,504
70389237,507
70399253,501
70409297,501
70419342,505
70429358,507
70439406,507
70449450,509
70459464,514
70469511,524
70479556,526
70489570,529
70499613,529
70509657,536
70519670,531
70529717,534
70539764,526
70549812,518
70559830,518
70569875,516
70579921,516
70589935,512
70599981,512
70610027,507
70620043,509
70630087,509
70640132,510
70650142,501
70660185,508
70670231,505
70680243,500
70690287,500
70700335,504
70710351,499
70720396,503
70730443,506
70740457,499
70750504,504
70760550,502
70770562,507
70780605,509
70790653,510
70800698,508
70810713,509
70820759,509
70830807,511
70840822,508
70850868,508
70860912,505
70870925,506
70880967,500
70891011,506
70901023,505
70911063,505
70921105,504
70931115,506
70941158,506
70951200,506
70961214,504
70971259,505
70981304,507
70991320,502
71001364,506
71011406,508
71021418,504
71031460,508
71041504,510
71051552,506
71061567,507
71071609,503
71081653,507
71091665,508
71101711,504
71111751,509
71121764,503
71131810,504
71141853,506
71151866,503
71161911,507
71171958,507
71181971,501
71192019,506
71202063,506
71212077,506
71222122,508
71232164,506
71242178,504
71252223,507
71262269,507
71272284,510
71282328,511
71292378,516
71302422,515
71312434,518
71322479,531
71332527,532
71342540,532
71352585,535
71362629,529
71372643,526
71382684,519
71392725,519
71402737,512
71412783,515
71422829,514
71432845,513
71442886,508
71452928,508
71462939,507
71472981,504
71483023,505
71493032,506
71503069,502
71513107,497
71523116,496
71533159,500
71543205,507
71553250,503
71563268,507
71573314,502
71583357,507
71593366,508
71603407,508
71613449,508
71623464,512
71633509,509
71643554,507
71653566,507
71663610,502
71673655,502
71683669,499
71693714,504
71703760,504
71713776,504
71723822,500
71733866,508
71743881,502
71753927,506
71763975,498
71773994,507
71784042,508
71794090,505
71804136,500
71814151,500
71824195,507
71834245,505
71844261,507
71854306,503
71864352,508
71874366,508
71884416,507
71894463,505
71904480,508
71914526,507
71924573,509
71934588,510
71944634,504
71954678,508
71964692,502
71974736,510
71984780,509
71994790,509
72004831,509
72014873,509
72024884,506
72034927,509
72044971,502
72055013,508
72065025,505
72075070,510
72085112,500
72095127,510
72105178,511
72115220,509
72125234,515
72135279,517
72145323,515
72155333,526
72165375,519
72175417,530
72185424,524
72195461,526
72205504,528
72215516,528
72225559,520
72235604,521
72245616,512
72255656,516
72265697,515
72275707,513
72285746,509
72295786,501
72305824,506
72315831,505
72325871,507
72335910,501
72345917,503
72355954,502
72365992,497
72376001,505
72386039,502
72396076,504
72406085,510
72416123,505
72426161,503
72436170,508
72446212,506
72456252,510
72466261,509
72476300,511
72486338,506
72496349,502
72506390,508
72516433,509
72526446,508
72536488,509
72546533,501
72556576,499
72566589,508
72576630,507
72586672,505
72596680,508
72606718,506
72616758,509
72626768,509
72636809,501
72646851,508
72656863,503
72666904,509
72676942,503
72686948,508
72696989,501
72707031,510
72717043,509
72727088,507
72737134,510
72747147,507
72757187,507
72767228,500
72777242,509
72787286,510
72797330,506
72807371,508
72817384,506
72827428,508
72837473,506
72847488,506
72857531,507
72867570,504
72877582,507
72887622,507
72897667,500
72907678,510
72917720,507
72927759,509
72937766,515
72947806,521
72957845,523
72967853,517
72977889,532
72987928,524
72997937,528
73007974,534
73018014,529
73028022,525
73038065,522
73048108,517
73058149,516
73068160,506
73078200,512
73088240,511
73098245,508
73108280,500
73118320,507
73128331,505
73138373,507
73148414,500
73158425,501
73168463,499
73178502,508
73188513,503
73198554,504
73208594,509
73218606,505
73228647,508
73238686,507
73248696,513
73258739,508
73268784,512
73278798,508
73288844,509
73298883,503
73308926,503
73318941,506
73328984,506
73339029,507
73349046,508
73359092,509
73369139,503
73379155,501
73389198,501
73399243,499
73409257,501
73419302,509
73429344,501
73439357,505
73449403,502
73459447,506
73469463,501
73479505,507
73489549,509
73499563,503
73509605,508
73519644,502
73529656,504
73539699,508
73549741,507
73559785,507
73569800,508
73579845,509
73589890,508
73599906,509
73609953,508
73619997,506
73630008,503
73640053,499
73650097,505
73660111,503
73670153,499
73680195,502
73690209,507
73700256,502
73710302,500
73720315,508
73730358,508
73740400,503
73750413,511
73760459,516
73770502,514
73780511,520
73790552,530
73800594,526
73810638,535
73820653,533
73830698,534
73840740,525
73850755,529
73860800,522
73870846,515
73880863,515
73890906,516
73900944,512
73910954,513
73920997,507
73931039,504
73941049,505
73951093,505
73961137,507
73971150,507
73981194,504
73991236,497
74001249,508
74011295,498
74021342,505
74031357,506
74041402,506
74051447,509
74061492,501
74071505,511
74081549,506
74091592,508
74101603,505
74111644,509
74121686,508
74131696,510
74141737,500
74151780,506
74161794,510
74171839,509
74181881,508
74191897,504
74201940,504
74211985,505
74221996,507
74232036,507
74242077,500
74252093,506
74262138,500
74272184,500
74282200,503
74292249,508
74302298,507
74312347,499
74322367,502
74332415,506
74342461,504
74352477,499
74362522,504
74372565,510
74382578,503
74392617,509
74402654,509
74412660,504
74422696,506
74432738,503
74442749,511
74452792,506
74462836,507
74472849,504
74482894,503
74492940,506
74502951,508
74512991,506
74523032,508
74533043,509
74543085,505
74553127,501
74563170,504
74573181,507
74583225,507
74593268,511
74603282,507
74613327,515
74623374,513
74633388,525
74643430,528
74653473,525
74663487,532
74673530,528
74683574,527
74693585,525
74703627,526
74713668,522
74723676,524
74733718,518
74743758,509
74753771,510
74763814,507
74773857,507
74783868,505
74793910,506
74803954,505
74813998,498
74824011,506
74834057,505
74844101,504
74854117,506
74864161,505
74874203,500
74884215,509
74894260,506
74904304,510
74914316,502
74924360,511
74934403,505
74944418,512
74954462,511
74964509,506
74974525,504
74984570,508
74994616,508
75004634,509
75014681,507
75024725,504
75034740,510
75044786,506
75054828,500
75064870,507
75074884,503
75084930,508
75094976,508
75104989,510
75115033,506
75125076,503
75135092,503
75145140,508
75155186,510
75165198,507
75175239,506
75185283,508
75195294,508
75205341,507
75215388,506
75225403,503
75235443,506
75245484,506
75255497,504
75265539,509
75275584,509
75285598,500
75295643,506
75305688,505
75315734,503
75325751,502
75335797,505
75345841,506
75355854,505
75365900,508
75375943,507
75385957,508
75396001,516
75406045,518
75416058,521
75426102,528
75436143,529
75446155,529
75456198,536
75466243,527
75476257,528
75486301,533
75496345,526
75506359,524
75516404,517
75526449,517
75536460,515
75546503,514
75556543,511
75566587,506
75576600,504
75586642,499
75596686,507
75606699,499
75616746,503
75626794,504
75636808,502
75646850,506
75656901,502
75666915,501
75676961,503
75687001,506
75697010,501
75707049,502
75717090,506
75727097,510
75737135,511
75747175,506
75757184,511
75767224,506
75777259,510
75787270,503
75797311,507
75807355,503
75817396,508
75827403,510
75837442,503
75847482,507
75857488,501
75867528,508
75877567,506
75887577,505
75897618,507
75907660,501
75917672,508
75927712,506
75937756,503
75947768,506
75957810,506
75967854,502
75977867,508
75987912,506
75997953,507
76007963,501
76018005,508
76028046,512
76038057,510
76048099,508
76058142,508
76068184,504
76078196,507
76088238,507
76098280,507
76108291,507
76118333,509
76128375,509
76138387,509
76148428,502
76158468,510
76168477,508
76178521,505
76188564,514
76198577,520
76208621,526
76218664,519
76228679,530
76238723,529
76248770,531
76258786,530
76268831,530
76278876,527
76288888,524
76298929,514
76308970,512
76319011,512
76329024,509
76339078,512
76349131,506
76359152,507
76369205,501
76379255,506
76389274,505
76399325,505
76409373,506
76419391,504
76429439,502
76439481,505
76449497,505
76459541,505
76469583,508
76479597,508
76489641,509
76499687,511
76509703,511
76519751,512
76529800,512
76539819,508
76549873,503
76559929,508
76569980,505
76579998,507
76590042,504
76600084,502
76610096,502
76620141,507
76630186,509
76640198,502
76650239,507
76660282,500
76670295,504
76680338,506
76690386,506
76700401,509
76710444,506
76720486,504
76730502,507
76740547,503
76750593,504
76760607,501
76770649,507
76780687,505
76790695,506
76800740,507
76810780,509
76820821,510
76830834,509
76840880,508
76850922,509
76860930,508
76870972,510
76881009,510
76891017,507
76901058,505
76911101,506
76921115,507
76931158,504
76941198,501
76951210,509
76961250,509
76971288,513
76981299,515
76991343,519
77001388,522
77011401,526
77021442,528
77031485,525
77041496,530
77051534,530
77061570,529
77071605,525
77081611,524
77091648,519
77101684,518
77111691,506
77121734,511
77131777,505
77141787,505
77151828,503
77161866,503
77171875,504
77181914,498
77191954,500
77201966,502
77212007,503
77222050,500
77232064,503
77242108,502
77252151,506
77262160,510
77272204,511
77282248,509
77292264,509
77302308,511
77312353,512
77322398,512
77332412,506
77342455,511
77352498,509
77362511,509
77372554,508
77382597,508
77392610,509
77402655,506
77412701,506
77422717,501
77432766,509
77442814,503
77452830,502
77462878,508
77472925,508
77482941,509
77492987,509
77503033,501
77513046,509
77523091,507
77533132,508
77543140,507
77553181,508
77563222,508
77573263,507
77583275,505
77593319,508
77603358,507
77613370,502
77623413,501
77633460,509
77643475,505
77653518,508
77663562,507
77673574,508
77683617,505
77693658,506
77703667,509
77713709,508
77723750,504
77733763,509
77743804,511
77753847,511
77763861,513
77773902,519
77783945,518
77793957,522
77804001,523
77814044,532
77824090,534
77834103,534
77844143,534
77854182,529
77864192,525
77874230,521
77884270,521
77894282,513
77904325,512
77914369,511
77924381,509
77934424,503
77944462,504
77954473,501
77964516,506
77974559,506
77984575,505
77994617,502
78004657,501
78014670,505
78024714,507
78034757,508
78044770,509
78054813,506
78064856,504
78074901,507
78084917,508
78094962,506
78105006,510
78115015,507
78125062,507
78135104,511
78145115,511
78155156,507
78165201,507
78175214,507
78185259,508
78195308,509
78205324,502
78215372,506
78225414,504
78235427,505
78245470,506
78255511,503
78265519,508
78275560,509
78285601,508
78295610,509
78305654,501
78315700,505
78325745,506
78335759,507
78345804,508
78355846,510
78365858,504
78375902,501
78385944,508
78395958,507
78406006,506
78416045,508
78426052,509
78436093,508
78446140,502
78456156,508
78466199,508
78476241,507
78486254,505
78496297,511
78506340,505
78516352,505
78526396,510
78536442,507
78546457,511
78556500,516
78566540,520
78576582,523
78586595,528
78596640,528
78606684,528
78616696,529
78626740,533
78636784,527
78646797,532
78656840,528
78666883,524
78676897,517
78686941,518
78696984,512
78706994,510
78717034,512
78727074,504
78737085,505
78747129,506
78757170,504
78767180,505
78777221,505
78787262,498
78797274,505
78807314,498
78817357,503
78827402,503
78837416,508
78847461,507
78857507,511
78867522,511
78877569,507
78887615,510
78897629,507
78907671,504
78917713,509
78927726,508
78937768,504
78947812,510
78957821,506
78967866,504
78977907,505
78987918,498
78997959,506
79008001,502
79018012,501
79028055,504
79038097,503
79048106,504
79058147,502
79068194,497
79078240,504
79088255,509
79098299,506
79108344,503
79118358,508
79128401,500
79138444,511
79148455,507
79158495,508
79168538,501
79178551,506
79188594,506
79198639,509
79208655,508
79218700,506
79228736,511
79238740,503
79248774,506
79258809,509
79268821,506
79278863,507
79288905,500
79298918,501
79308964,506
79319005,506
79329048,507
79339058,498
79349102,501
79359146,499
79369159,505
79379203,505
79389245,513
79399256,513
79409299,515
79419343,522
79429357,522
79439400,524
79449444,530
79459456,532
79469497,530
79479539,531
79489550,522
79499591,519
79509631,524
79519640,514
79529687,514
79539739,514
79549760,511
79559810,501
79569855,508
79579902,505
79589918,505
79599968,499
79610013,501
79620023,504
79630067,503
79640111,498
79650121,504
79660165,504
79670203,500
79680216,501
79690260,501
79700305,505
79710326,510
79720378,508
79730429,507
79740451,502
79750500,507
79760553,509
79770567,504
79780610,505
79790653,508
79800664,509
79810707,501
79820753,506
79830798,507
79840804,505
79850839,498
79860878,502
79870889,507
79880931,508
79890970,501
79900981,502
79911020,503
79921060,504
79931071,507
79941113,503
79951154,509
79961158,503
79971198,507
79981238,506
79991245,507
80001283,500
80011320,509
80021329,506
80031368,503
80041407,507
80051415,504
80061453,501
80071493,502
80081532,502
80091541,507
80101579,503
80111618,508
80121629,508
80131670,506
80141705,500
80151712,503
80161753,506
80171794,507
80181801,511
80191842,508
80201883,519
80211892,521
80221932,519
80231972,528
80241982,527
80252023,531
80262066,535
80272077,536
80282120,530
80292161,524
80302170,523
80312212,517
80322253,520
80332297,515
80342309,516
80352353,509
80362398,507
80372412,510
80382454,504
80392497,495
80402510,508
80412556,499
80422602,505
80432616,503
80442657,501
80452702,503
80462709,510
80472750,511
80482792,509
80492797,508
80502836,512
80512878,510
80522890,513
80532933,508
80542979,509
80552989,512
80563032,513
80573075,505
80583112,508
80593116,505
80603157,510
80613196,510
80623202,511
80633241,503
80643277,510
80653285,508
80663326,509
80673364,501
80683371,506
80693406,501
80703444,505
80713454,503
80723498,506
80733540,505
80743552,507
80753593,506
80763636,507
80773649,506
80783693,503
80793739,506
80803748,506
80813787,507
80823829,498
80833869,505
80843880,499
80853921,507
80863962,499
80873971,497
80884012,504
80894054,504
80904066,499
80914107,501
80924149,505
80934160,505
80944202,507
80954245,500
80964259,508
80974298,512
80984334,515
80994342,519
81004381,520
81014423,518
81024433,528
81034479,528
81044527,535
81054542,537
81064586,533
81074631,535
81084674,526
81094686,522
81104727,516
81114770,522
81124784,515
81134823,514
81144861,505
81154868,509
81164908,509
81174948,511
81184956,508
81194996,509
81205038,506
81215048,510
81225086,504
81235126,505
81245137,505
81255175,504
81265216,507
81275224,511
81285265,508
81295306,512
81305317,506
81315359,509
81325401,512
81335441,506
81345452,512
81355493,508
81365532,509
81375543,508
81385586,504
81395624,507
81405630,503
81415667,509
81425701,502
81435712,502
81445750,508
81455786,502
81465793,507
81475831,501
81485870,509
81495877,508
81505915,507
81515951,503
81525956,511
81535996,499
81546036,509
81556042,509
81566077,506
81576118,499
81586159,509
81596168,510
81606210,509
81616251,509
81626260,501
81636300,508
81646340,506
81656350,503
81666390,508
81676431,501
81686443,508
81696484,508
81706524,510
81716539,506
81726577,510
81736620,508
81746632,509
81756674,516
81766717,517
81776726,523
81786770,523
81796810,529
81806819,530
81816862,531
81826905,531
81836947,528
81846959,530
81857003,519
81867047,516
81877060,520
81887101,517
81897144,516
81907156,514
81917199,510
81927242,508
81937257,507
81947302,505
81957345,502
81967358,505
81977400,505
81987443,503
81997457,502
82007499,505
82017545,502
82027561,509
82037606,507
82047648,506
82057660,511
82067707,508
82077751,512
82087797,511
82097812,509
82107858,512
82117899,512
82127914,510
82137960,502
82148006,509
82158021,510
82168068,502
82178114,510
82188131,508
82198177,509
82208222,504
82218238,500
82228285,505
82238329,500
82248342,502
82258387,506
82268432,508
82278445,502
82288489,507
82298534,509
82308550,504
82318594,506
82328638,505
82338681,506
82348692,508
82358731,499
82368772,503
82378781,506
82388822,505
82398862,510
82408873,512
82418913,503
82428952,508
82438960,503
82449002,502
82459038,504
82469049,506
82479087,500
82489126,505
82499134,504
82509174,505
82519218,505
82529227,505
82539268,507
82549310,509
82559318,505
82569360,514
82579400,517
82589442,518
82599455,517
82609498,522
82619538,529
82629550,522
82639591,526
82649635,526
82659647,516
82669688,518
82679730,516
82689740,516
82699785,513
82709828,508
82719839,500
82729883,501
82739931,500
82749948,498
82759998,496
82770042,503
82780053,503
82790097,501
82800138,504
82810147,508
82820187,505
82830231,507
82840276,506
82850288,507
82860329,504
82870370,507
82880379,511
82890419,509
82900461,507
82910471,508
82920512,507
82930551,512
82940561,503
82950605,506
82960646,506
82970656,510
82980695,503
82990734,509
83000742,509
83010780,510
83020819,505
83030828,508
83040869,503
83050909,507
83060921,509
83070963,506
83081005,505
83091048,506
83101064,505
83111109,504
83121151,508
83131167,503
83141211,509
83151255,509
83161267,509
83171310,506
83181353,507
83191363,505
83201404,505
83211446,503
83221456,508
83231500,504
83241547,508
83251562,508
83261607,509
83271649,502
83281661,508
83291700,507
83301740,510
83311753,511
83321795,513
83331835,514
83341874,512
83351886,520
83361931,522
83371974,520
83381986,523
83392031,524
83402077,532
83412094,531
83422140,529
83432185,526
83442196,521
83452238,520
83462283,516
83472297,513
83482341,507
83492383,511
83502393,506
83512436,506
83522477,500
83532491,508
83542535,495
83552579,501
83562590,498
83572632,498
83582675,497
83592718,503
83602730,502
83612775,500
83622821,510
83632835,510
83642880,512
83652923,506
83662937,512
83672986,513
83683030,512
83693045,505
83703089,510
83713133,507
83723148,510
83733190,507
83743232,509
83753245,505
83763289,509
83773330,507
83783345,504
83793393,509
83803437,507
83813448,507
83823494,509
83833543,508
83843592,507
83853607,508
83863650,510
83873692,507
83883706,508
83893751,503
83903795,508
83913805,509
83923849,504
83933891,508
83943906,510
83953951,511
83963990,506
83974001,512
83984047,509
83994094,508
84004109,503
84014154,503
84024199,505
84034211,510
84044253,508
84054301,506
84064318,512
84074364,513
84084410,518
84094458,515
84104475,519
84114522,527
84124570,530
84134586,528
84144632,534
84154682,528
84164698,529
84174746,518
84184791,520
84194807,516
84204854,513
84214902,506
84224919,512
84234965,507
84245016,499
84255035,500
84265083,502
84275133,503
84285153,505
84295201,500
84305250,495
84315270,503
84325318,499
84335365,502
84345413,501
84355431,503
84365480,506
84375529,510
84385548,510
84395594,510
84405641,509
84415656,514
84425705,509
84435753,509
84445773,511
84455822,508
84465871,509
84475889,505
84485934,508
84495978,505
84505989,506
84516034,504
84526082,508
84536097,507
84546145,505
84556194,501
84566213,506
84576262,499
84586309,503
84596359,500
84606378,504
84616428,506
84626477,504
84636494,504
84646541,508
84656590,502
84666606,499
84676650,503
84686700,503
84696718,504
84706767,503
84716812,504
84726828,507
84736876,505
84746925,506
84756945,497
84766992,505
84777039,505
84787057,508
84797103,510
84807151,510
84817169,515
84827215,522
84837267,528
84847318,521
84857338,530
84867386,529
84877435,528
84887451,531
84897496,530
84907543,523
84917560,520
84927609,524
84937651,514
84947661,512
84957706,513
84967748,509
84977762,509
84987806,508
84997849,498
85007858,508
85017897,497
85027937,504
85037949,498
85047993,502
85058039,502
85068057,507
85078103,502
85088148,505
85098195,502
85108207,510
85118252,508
85128297,503
85138310,492
85148356,504
85158401,511
85168413,510
85178456,504
85188498,509
85198512,507
85208558,508
85218599,510
85228610,501
85238650,503
85248690,505
85258700,505
85268743,502
85278785,499
85288795,499
85298837,505
85308879,503
85318890,501
85328933,499
85338976,507
85349021,504
85359036,501
85369084,504
85379131,499
85389147,505
85399194,503
85409239,505
85419250,502
85429295,501
85439341,508
85449356,505
85459400,501
85469442,504
85479452,504
85489493,507
85499535,508
85509547,508
85519592,511
85529632,512
85539637,517
85549673,517
85559712,517
85569723,527
85579764,524
85589801,529
85599836,529
85609842,525
85619884,532
85629925,524
85639936,525
85649978,521
85660020,521
85670029,520
85680067,518
85690107,508
85700118,513
85710161,510
85720206,509
85730216,506
85740254,508
85750296,508
85760305,502
85770345,506
85780384,502
85790392,505
85800432,501
85810471,507
85820480,505
85830521,510
85840562,505
85850604,504
85860609,514
85870646,508
85880686,516
85890697,508
85900737,503
85910775,509
85920785,506
85930825,507
85940868,507
85950878,509
85960918,508
85970958,507
85980966,509
85991006,508
86001043,505
86011050,503
86021091,509
86031133,507
86041143,509
86051186,505
86061228,506
86071237,508
86081281,505
86091325,504
86101370,509
86111382,510
86121420,504
86131463,503
86141472,510
86151511,510
86161550,506
86171556,509
86181596,511
86191634,505
86201645,509
86211685,512
86221727,509
86231739,515
86241781,516
86251826,526
86261840,528
86271884,530
86281929,533
86291943,536
86301988,537
86312034,530
86322049,530
86332090,526
86342132,525
86352175,522
86362181,516
86372217,516
86382254,512
86392264,514
86402304,512
86412343,503
86422347,508
86432382,502
86442418,507
86452428,505
86462469,503
86472511,504
86482520,500
86492561,501
86502600,507
86512603,505
86522637,503
86532671,507
86542676,506
86552715,508
86562753,510
86572762,510
86582799,510
86592839,509
86602876,509
86612884,506
86622924,504
86632963,508
86642972,509
86653011,509
86663049,508
86673054,505
86683088,499
86693124,503
86703133,509
86713171,509
86723209,506
86733218,506
86743257,502
86753298,506
86763308,502
86773346,506
86783385,505
86793393,506
86803433,508
86813473,507
86823482,501
86833519,500
86843558,499
86853597,504
86863606,502
86873643,499
86883681,503
86893693,498
86903733,506
86913778,505
86923790,506
86933831,511
86943871,507
86953883,510
86963924,514
86973964,515
86983974,516
86994016,524
87004057,529
87014072,527
87024116,523
87034158,531
87044170,530
87054214,528
87064258,528
87074273,525
87084319,521
87094365,521
87104407,518
87114421,513
87124463,514
87134504,512
87144513,511
87154555,508
87164600,508
87174612,508
87184654,496
87194699,505
87204712,497
87214754,499
87224797,507
87234811,500
87244858,502
87254904,508
87264917,505
87274959,505
87285002,507
87295018,510
87305062,513
87315106,512
87325121,512
87335168,515
87345214,512
87355257,511
87365270,511
87375313,509
87385356,512
87395368,511
87405411,508
87415455,508
87425469,508
87435513,506
87445558,506
87455572,502
87465619,501
87475662,509
87485675,504
87495722,506
87505771,504
87515789,506
87525832,505
87535881,504
87545896,504
87555944,506
87565992,508
87576008,509
87586057,503
87596104,502
87606146,500
87616157,510
87626199,506
87636241,503
87646252,510
87656294,508
87666336,508
87676351,508
87686398,511
87696440,514
87706453,517
87716496,520
87726538,520
87736550,523
87746592,529
87756635,532
87766652,530
87776699,535
87786745,528
87796759,525
87806804,526
87816846,524
87826857,514
87836899,517
87846943,510
87856987,512
87866998,510
87877039,505
87887080,507
87897090,508
87907133,507
87917176,505
87927188,504
87937231,503
87947273,504
87957285,498
87967330,496
87977373,501
87987384,505
87997426,500
88007468,500
88017481,508
88027523,510
88037562,506
88047574,506
88057617,508
88067663,508
88077679,509
88087721,508
88097763,499
88107812,502
88117829,504
88127874,510
88137916,505
88147935,508
88157984,507
88168029,508
88178046,504
88188094,505
88198137,507
88208149,504
88218195,508
88228239,500
88238251,506
88248291,503
88258332,502
88268343,501
88278387,508
88288431,504
88298445,506
88308487,503
88318533,509
88328549,506
88338595,510
88348641,505
88358690,502
88368704,504
88378749,508
88388790,506
88398805,506
88408853,510
88418904,506
88428925,504
88438975,503
88449022,506
88459038,507
88469081,507
88479120,512
88489130,507
88499173,517
88509216,531
88519227,521
88529271,529
88539313,530
88549327,533
88559373,529
88569420,530
88579436,531
88589483,525
88599528,524
88609572,523
88619585,521
88629628,519
88639671,515
88649683,510
88659726,507
88669772,511
88679787,509
88689832,510
88699875,508
88709889,504
88719934,503
88729980,498
88739994,506
88750041,499
88760089,498
88770105,498
88780151,502
88790198,508
88800216,508
88810263,505
88820309,507
88830325,502
88840373,510
88850423,504
88860473,506
88870488,509
88880536,508
88890584,509
88900605,510
88910656,509
88920704,506
88930720,509
88940767,501
88950814,507
88960829,505
88970876,509
88980922,505
88990939,499
89000986,505
89011034,505
89021051,497
89031099,504
89041148,501
89051165,502
89061214,498
89071260,501
89081275,502
89091321,505
89101366,503
89111413,507
89121426,507
89131472,509
89141518,507
89151534,507
89161579,502
89171622,508
89181635,504
89191678,501
89201723,509
89211738,504
89221785,508
89231832,503
89241848,504
89251897,509
89261944,509
89271958,510
89282000,503
89292043,509
89302057,512
89312100,512
89322144,518
89332152,518
89342192,529
89352234,533
89362277,528
89372291,531
89382337,525
89392380,526
89402394,523
89412440,524
89422484,519
89432502,517
89442552,513
89452600,514
89462619,505
89472669,511
89482720,510
89492737,506
89502781,505
89512825,504
89522839,501
89532885,502
89542931,499
89552946,495
89562993,499
89573041,506
89583057,501
89593103,507
89603150,502
89613197,504
89623211,507
89633258,505
89643301,507
89653313,510
89663361,510
89673408,506
89683424,508
89693468,512
89703512,503
89713525,511
89723570,508
89733614,507
89743627,505
89753672,504
89763714,506
89773725,506
89783769,508
89793816,504
89803831,505
89813881,500
89823929,505
89833941,506
89843985,501
89854028,501
89864071,501
89874082,505
89884124,503
89894162,503
89904170,501
89914213,504
89924254,509
89934267,510
89944312,508
89954359,504
89964372,507
89974413,503
89984454,509
89994465,509
90004510,503
90014555,510
90024569,505
90034611,501
90044653,504
90054667,507
90064711,508
90074756,508
90084766,514
90094807,516
90104849,516
90114893,526
90124904,524
90134945,528
90144987,527
90155000,527
90165043,523
90175087,526
90185098,521
90195142,524
90205187,521
90215201,513
90225244,514
90235290,515
90245303,510
90255345,512
90265388,508
90275402,500
90285447,508
90295488,504
90305501,504
90315546,506
90325590,504
90335603,503
90345646,503
90355688,502
90365734,501
90375750,505
90385794,508
90395839,505
90405854,507
90415901,509
90425952,510
90435975,506
90446025,511
90456073,507
90466088,511
90476132,505
90486173,512
90496186,512
90506230,510
90516276,509
90526291,503
90536337,507
90546385,503
90556400,510
90566446,508
90576495,507
90586512,507
90596558,510
90606601,500
90616646,503
90626663,502
90636706,507
90646750,509
90656762,509
90666803,504
90676845,506
90686853,502
90696892,505
90706934,508
90716946,509
90726985,505
90737027,507
90747042,506
90757086,504
90767131,500
90777147,507
90787193,505
90797238,510
90807254,512
90817300,520
90827345,518
90837359,523
90847402,524
90857443,526
90867487,530
90877501,530
90887545,526
90897591,519
90907605,522
90917648,518
90927691,516
90937705,516
90947747,512
90957787,505
90967799,507
90977844,504
90987884,509
90997896,508
91007943,504
91017986,500
91027998,501
91038038,501
91048080,498
91058093,504
91068138,503
91078181,502
91088193,503
91098234,506
91108280,506
91118324,507
91128338,511
91138382,510
91148427,505
91158442,512
91168487,509
91178533,505
91188546,510
91198591,504
91208633,503
91218644,505
91228688,500
91238732,506
91248748,504
91258792,503
91268834,507
91278846,507
91288892,501
91298931,504
91308940,508
91318980,505
91329020,507
91339028,503
91349065,508
91359103,508
91369144,508
91379157,501
91389202,508
91399247,505
91409260,509
91419305,505
91429352,504
91439367,506
91449415,504
91459462,502
91469476,509
91479520,506
91489563,510
91499577,508
91509620,509
91519664,504
91529677,505
91539722,516
91549763,519
91559774,522
91569817,518
91579858,524
91589868,533
91599908,533
91609949,533
91619993,528
91630007,525
91640053,528
91650096,521
91660109,524
91670154,515
91680199,516
91690214,510
91700257,511
91710299,512
91720310,507
91730351,504
91740392,503
91750403,505
91760443,508
91770484,499
91780493,501
91790530,502
91800574,503
91810585,497
91820627,501
91830673,498
91840689,505
91850734,504
91860776,502
91870816,509
91880826,508
91890865,510
91900905,505
91910915,512
91920958,506
91931003,506
91941016,509
91951057,503
91961098,506
91971107,504
91981151,507
91991197,510
92001211,500
92011255,507
92021297,505
92031312,508
92041355,507
92051401,504
92061417,499
92071462,506
92081505,508
92091524,506
92101572,506
92111617,505
92121661,503
92131677,509
92141723,510
92151768,511
92161784,507
92171832,504
92181881,501
92191899,503
92201947,506
92211990,508
92222005,507
92232046,503
92242095,505
92252113,505
92262161,503
92272208,509
92282224,500
92292264,507
92302306,501
92312322,504
92322371,507
92332415,510
92342428,512
92352473,507
92362519,511
92372565,517
92382578,522
92392625,530
92402671,533
92412684,532
92422730,530
92432774,526
92442787,521
92452832,529
92462881,521
92472897,522
92482943,519
92492990,515
92503003,515
92513050,506
92523095,509
92533110,507
92543158,507
92553204,508
92563218,507
92573266,501
92583313,506
92593325,499
92603372,501
92613416,502
92623462,503
92633476,496
92643524,500
92653571,502
92663586,502
92673630,510
92683675,507
92693687,511
92703733,509
92713780,504
92723799,512
92733846,506
92743893,510
92753908,509
92763952,509
92773997,501
92784011,504
92794055,506
92804097,507
92814111,499
92824158,499
92834202,501
92844218,506
92854261,508
92864306,500
92874351,499
92884367,507
92894412,501
92904459,504
92914476,502
92924523,507
92934569,507
92944587,502
92954632,506
92964679,505
92974698,503
92984749,499
92994801,501
93004819,502
93014869,507
93024919,506
93034935,507
93044988,504
93055037,503
93065053,502
93075103,509
93085155,508
93095176,505
93105225,507
93115274,502
93125325,504
93135351,502
93145409,509
93155465,509
93165491,509
93175547,505
93185598,503
93195615,510
93205661,505
93215709,510
93225728,507
93235776,514
93245824,519
93255841,517
93265892,526
93275941,522
93285959,529
93296006,533
93306052,531
93316069,527
93326117,526
93336165,528
93346183,521
93356230,521
93366277,517
93376325,516
93386343,514
93396389,510
93406435,510
93416452,510
93426498,501
93436547,499
93446568,503
93456619,500
93466668,502
93476686,502
93486734,498
93496784,501
93506800,504
93516848,500
93526899,502
93536924,501
93546980,507
93557035,502
93567058,508
93577114,509
93587166,512
93597188,510
93607242,509
93617295,505
93627346,508
93637370,506
93647421,499
93657470,504
93667489,508
93677538,508
93687589,501
93697610,508
93707662,504
93717714,504
93727733,507
93737784,506
93747835,507
93757854,503
93767906,503
93777957,502
93787978,502
93798031,508
93808083,503
93818105,509
93828159,488
93838211,509
93848234,505
93858286,507
93868338,507
93878393,507
93888412,513
93898466,512
93908521,509
93918543,506
93928594,507
93938645,507
93948666,509
93958716,509
93968768,508
93978789,509
93988837,506
93998879,505
94008895,507
94018944,502
94028991,505
94039005,508
94049049,510
94059095,512
94069110,518
94079155,513
94089200,523
94099218,528
94109261,527
94119307,532
94129356,530
94139372,532
94149417,529
94159466,531
94169485,526
94179531,515
94189577,512
94199592,516
94209640,513
94219687,505
94229699,513
94239743,505
94249788,509
94259805,501
94269852,506
94279900,497
94289918,519
94299968,498
94310019,502
94320037,504
94330086,500
94340132,503
94350151,506
94360200,503
94370245,502
94380292,507
94390310,511
94400358,508
94410404,511
94420421,509
94430467,503
94440514,506
94450530,504
94460578,508
94470624,507
94480635,508
94490674,501
94500719,506
94510735,508
94520779,503
94530824,507
94540841,506
94550888,499
94560933,507
94570949,504
94580997,500
94591046,504
94601060,507
94611106,507
94621151,502
94631199,506
94641215,510
94651258,509
94661304,504
94671322,504
94681369,510
94691421,506
94701440,507
94711491,502
94721543,505
94731558,505
94741606,510
94751653,505
94761669,501
94771715,509
94781760,508
94791775,506
94801822,500
94811870,505
94821888,503
94831937,506
94841984,505
94852000,504
94862051,507
94872102,506
94882152,512
94892171,516
94902220,514
94912270,527
94922287,525
94932335,531
94942380,532
94952398,526
94962445,535
94972489,533
94982502,526
94992551,523
95002602,526
95012622,523
95022669,517
95032720,511
95042740,508
95052789,508
95062838,507
95072859,511
95082915,510
95092966,506
95102986,509
95113035,499
95123084,503
95133133,504
95143153,503
95153205,501
95163257,500
95173277,500
95183331,509
95193385,502
95203405,504
95213455,509
95223503,509
95233517,510
95243564,507
95253608,506
95263623,512
95273670,502
95283719,511
95293738,510
95303787,508
95313833,508
95323851,507
95333899,508
95343949,501
95353971,505
95364022,507
95374071,502
95384120,504
95394138,499
95404189,506
95414240,504
95424262,509
95434314,501
95444365,505
95454388,503
95464442,507
95474494,500
95484516,505
95494568,507
95504623,508
95514647,505
95524699,501
95534753,504
95544777,506
95554826,509
95564875,508
95574894,506
95584950,510
95595003,509
95605030,509
95615088,508
95625144,505
95635201,505
95645230,509
95655287,509
95665334,508
95675349,507
95685396,508
95695440,508
95705458,511
95715508,506
95725555,507
95735574,513
95745624,519
95755672,524
95765691,527
95775740,530
95785790,535
95795806,535
95805850,532
95815897,529
95825912,532
95835957,525
95846007,520
95856025,519
95866071,517
95876115,515
95886160,513
95896174,512
95906220,510
95916267,508
95926282,511
95936328,509
95946374,500
95956392,505
95966441,501
95976489,502
95986505,500
95996555,505
96006603,500
96016620,500
96026666,505
96036714,504
96046729,508
96056769,506
96066816,508
96076833,503
96086882,504
96096932,508
96106950,512
96117000,508
96127051,506
96137101,508
96147123,510
96157174,509
96167224,510
96177242,505
96187294,502
96197344,509
96207361,505
96217412,508
96227463,505
96237484,504
96247536,507
96257590,506
96267614,500
96277670,502
96287727,501
96297751,507
96307804,505
96317862,506
96327886,505
96337937,505
96347991,501
96358015,507
96368068,501
96378117,503
96388167,504
96398187,505
96408233,508
96418284,503
96428306,503
96438357,507
96448406,505
96458425,506
96468474,507
96478528,508
96488548,508
96498601,504
96508656,508
96518684,506
96528742,506
96538801,511
96548827,507
96558884,501
96568937,503
96578960,508
96589017,507
96599072,509
96609095,511
96619149,515
96629202,516
96639254,525
96649277,519
96659332,528
96669386,535
96679410,533
96689462,531
96699512,525
96709532,526
96719583,523
96729635,519
96739660,517
96749715,516
96759770,509
96769794,507
96779848,504
96789898,508
96799916,505
96809962,504
96820009,505
96830031,505
96840082,504
96850131,501
96860150,502
96870201,502
96880250,506
96890299,502
96900318,502
96910367,506
96920411,507
96930426,509
96940474,504
96950521,504
96960536,510
96970582,507
96980626,510
96990640,511
97000685,510
97010732,507
97020751,508
97030797,506
97040845,507
97050862,504
97060909,508
97070963,500
97080985,499
97091036,501
97101089,506
97111111,503
97121166,508
97131216,506
97141264,507
97151279,500
97161325,501
97171374,504
97181393,510
97191442,503
97201493,508
97211516,504
97221567,507
97231618,499
97241640,510
97251690,508
97261737,507
97271752,500
97281798,500
97291846,500
97301861,508
97311909,507
97321956,500
97331974,509
97342025,509
97352072,505
97362088,502
97372137,505
97382184,508
97392231,505
97402248,508
97412296,509
97422344,507
97432363,499
97442414,503
97452466,504
97462489,503
97472540,503
97482592,510
97492612,507
97502659,515
97512706,517
97522724,514
97532770,521
97542819,530
97552838,530
97562888,529
97572938,532
97582956,527
97593003,529
97603051,520
97613070,523
97623121,521
97633176,519
97643229,510
97653253,516
97663302,511
97673347,508
97683364,507
97693411,505
97703458,505
97713476,501
97723524,500
97733575,501
97743593,500
97753642,501
97763692,504
97773711,507
97783762,508
97793813,505
97803832,502
97813883,509
97823930,508
97833946,509
97843990,512
97854033,508
97864049,508
97874099,505
97884147,509
97894197,511
97904216,504
97914267,513
97924317,505
97934336,508
97944385,509
97954434,503
97964451,508
97974498,497
97984548,504
97994564,507
98004613,505
98014663,503
98024681,508
98034733,507
98044785,508
98054805,502
98064855,508
98074903,508
98084918,504
98094963,500
98105013,504
98115031,505
98125076,509
98135117,507
98145158,508
98155171,499
98165217,504
98175259,502
98185273,506
98195319,506
98205363,508
98215378,506
98225424,509
98235472,508
98245487,502
98255535,507
98265578,506
98275590,501
98285634,507
98295680,504
98305694,511
98315737,516
98325782,517
98335796,522
98345839,522
98355884,528
98365899,523
98375945,531
98385989,536
98396032,532
98406048,529
98416095,529
98426144,523
98436161,522
98446208,516
98456255,510
98466270,517
98476318,513
98486361,510
98496376,503
98506425,510
98516475,509
98526494,503
98536540,498
98546587,506
98556604,502
98566651,505
98576696,497
98586712,502
98596759,498
98606805,504
98616823,504
98626873,507
98636920,510
98646965,510
98656978,511
98667021,508
98677067,508
98687083,506
98697130,506
98707185,508
98717209,509
98727264,509
98737320,504
98747338,503
98757387,506
98767437,504
98777455,504
98787504,504
98797553,507
98807571,501
98817616,507
98827660,499
98837676,507
98847721,506
98857766,500
98867779,508
98877824,501
98887867,500
98897914,508
98907933,501
98917981,508
98928027,508
98938042,506
98948091,507
98958138,499
98968154,507
98978203,509
98988253,502
98998271,504
99008321,509
99018367,506
99028381,505
99038428,501
99048476,500
99058496,501
99068544,499
99078591,500
99088608,500
99098655,502
99108703,503
99118719,505
99128764,509
99138809,510
99148856,515
99158876,522
99168924,518
99178968,528
99188980,531
99199022,525
99209062,532
99219073,532
99229119,526
99239164,530
99249177,521
99259220,519
99269264,521
99279278,519
99289320,518
99299363,512
99309377,511
99319423,509
99329468,507
99339484,503
99349533,502
99359584,500
99369599,500
99379650,504
99389700,500
99399751,505
99409772,498
99419822,504
99429869,505
99439885,507
99449927,503
99459970,507
99469985,510
99480031,509
99490077,515
99500091,508
99510140,507
99520187,507
99530204,513
99540251,511
99550301,504
99560318,506
99570367,512
99580415,510
99590431,501
99600477,506
99610522,506
99620534,508
99630577,501
99640625,507
99650671,507
99660688,504
99670734,505
99680776,506
99690788,505
99700830,503
99710875,508
99720887,506
99730930,506
99740974,502
99750984,507
99761026,509
99771072,511
99781085,505
99791126,508
99801166,503
99811177,505
99821218,508
99831263,508
99841277,507
99851318,507
99861360,501
99871369,505
99881411,507
99891452,507
99901495,503
99911506,507
99921549,503
99931593,506
99941606,510
99951653,506
99961699,509
99971715,518
99981764,521
99991810,524
100001826,527
100011874,531
100021922,532
100031939,528
100041985,532
100052030,534
100062046,529
100072096,528
100082146,522
100092165,513
100102213,510
100112259,510
100122279,509
100132327,506
100142377,512
100152427,507
100162444,509
100172491,509
100182534,505
100192545,506
100202591,502
100212637,501
100222651,504
100232697,502
100242740,502
100252749,505
100262797,507
100272846,506
100282864,503
100292914,507
100302962,506
100312976,509
100323024,507
100333075,512
100343094,510
100353147,508
100363199,503
100373218,509
100383269,503
100393317,510
100403365,508
100413380,505
100423426,510
100433471,510
100443486,510
100453530,507
100463574,501
100473589,504
100483634,507
100493678,508
100503691,507
100513738,504
100523782,501
100533798,507
100543843,505
100553890,507
100563906,509
100573953,508
100584000,505
100594017,507
100604060,506
100614107,500
100624123,503
100634166,507
100644211,506
100654258,506
100664278,507
100674326,508
100684374,506
100694392,507
100704438,507
100714483,507
100724501,507
100734549,501
100744599,504
100754619,507
100764667,504
100774713,504
100784729,511
100794779,515
100804828,516
100814844,519
100824893,518
100834938,525
100844951,531
100854994,530
100865038,531
100875047,534
100885085,528
100895125,525
100905169,521
100915183,519
100925225,517
100935270,515
100945284,511
100955332,513
100965376,511
100975389,503
100985430,508
100995475,504
101005492,498
101015537,506
101025579,506
101035591,497
101045634,501
101055679,505
101065694,506
101075736,502
101085777,506
101095787,507
101105827,509
101115869,509
101125880,506
101135923,504
101145966,511
101156010,509
101166025,509
101176068,511
101186108,511
101196115,507
101206148,510
101216182,500
101226192,504
101236231,506
101246271,507
101256279,505
101266318,509
101276357,507
101286366,505
101296406,504
101306444,510
101316452,502
101326489,508
101336531,503
101346542,506
101356585,509
101366621,508
101376630,507
101386675,505
101396721,502
101406766,509
101416782,509
101426827,506
101436873,503
101446883,508
101456928,504
101466973,501
101476987,505
101487026,512
101497068,509
101507083,503
101517127,510
101527172,509
101537186,505
101547230,505
101557270,510
101567280,510
101577326,505
101587373,507
101597390,511
101607437,510
101617483,510
101627500,507
101637549,511
101647596,519
101657642,520
101667658,524
101677705,522
101687754,533
101697773,532
101707824,534
101717874,534
101727894,531
101737942,530
101747990,527
101758007,522
101768056,521
101778104,518
101788123,506
101798172,512
101808223,512
101818243,508
101828293,511
101838344,502
101848364,499
101858416,503
101868465,505
101878482,503
101888528,503
101898577,505
101908627,499
101918650,499
101928701,502
101938751,499
101948769,508
101958816,506
101968865,500
101978883,510
101988930,507
101998976,505
102008990,509
102019036,512
102029085,503
102039102,512
102049147,504
102059195,509
102069213,512
102079258,510
102089303,504
102099319,504
102109366,506
102119413,508
102129432,505
102139482,509
102149532,508
102159579,507
102169599,510
102179650,506
102189697,508
102199712,508
102209761,511
102219811,503
102229828,509
102239874,504
102249923,507
102259943,509
102269996,507
102280049,502
102290066,500
102300112,505
102310159,501
102320176,506
102330220,504
102340265,502
102350280,506
102360327,507
102370375,506
102380390,506
102390437,501
102400485,507
102410534,510
102420549,506
102430595,506
102440641,501
102450655,506
102460699,504
102470747,511
102480763,516
102490807,514
102500854,512
102510867,522
102520912,520
102530957,527
102540973,521
102551018,533
102561061,524
102571073,529
102581116,525
102591164,524
102601180,524
102611225,518
102621267,516
102631281,517
102641324,521
102651370,513
102661415,512
102671426,508
102681466,501
102691510,501
102701527,498
102711577,502
102721629,504
102731647,504
102741695,500
102751742,505
102761759,504
102771808,503
102781858,499
102791875,504
102801923,504
102811970,509
102821988,505
102832034,503
102842079,510
102852095,512
102862141,505
102872189,507
102882207,506
102892255,504
102902304,501
102912355,509
102922372,507
102932421,503
102942470,507
102952488,504
102962538,506
102972586,504
102982604,505
102992654,502
103002699,502
103012719,508
103022771,505
103032820,502
103042838,510
103052887,508
103062938,508
103072956,505
103083001,505
103093047,502
103103064,502
103113114,510
103123167,503
103133193,505
103143249,507
103153298,502
103163346,508
103173367,508
103183417,502
103193468,510
103203487,509
103213535,503
103223584,499
103233602,503
103243649,506
103253698,510
103263713,508
103273760,505
103283808,502
103293826,501
103303876,507
103313928,506
103323942,502
103333990,508
103344035,508
103354049,516
103364096,517
103374141,523
103384156,526
103394202,521
103404248,534
103414297,527
103424315,527
103434361,529
103444404,524
103454419,520
103464461,519
103474504,518
103484515,512
103494557,515
103504598,506
103514615,507
103524665,505
103534713,506
103544728,502
103554777,507
103564826,504
103574846,502
103584894,497
103594939,504
103604954,500
103615001,505
103625050,501
103635069,507
103645119,507
103655168,507
103665216,507
103675234,500
103685281,510
103695334,505
103705353,506
103715402,509
103725453,503
103735471,507
103745520,509
103755571,508
103765587,506
103775632,504
103785676,504
103795693,505
103805740,506
103815789,503
103825805,499
103835856,501
103845906,502
103855927,502
103865978,507
103876030,506
103886052,503
103896109,507
103906164,508
103916222,508
103926252,504
103936310,509
103946366,501
103956390,505
103966445,507
103976496,504
103986525,507
103996576,503
104006627,507
104016644,509
104026689,504
104036733,509
104046747,508
104056791,508
104066839,507
104076855,503
104086900,506
104096946,505
104106962,510
104117009,510
104127057,508
104137070,507
104147118,508
104157168,512
104167214,510
104177228,508
104187272,511
104197315,520
104207336,517
104217384,526
104227435,527
104237454,521
104247508,529
104257560,526
104267586,524
104277640,523
104287693,523
104297714,516
104307761,518
104317808,518
104327822,513
104337873,512
104347928,514
104357950,483
104368002,507
104378057,510
104388084,506
104398141,507
104408195,501
104418240,506
104428259,507
104438307,505
104448354,503
104458370,502
104468415,504
104478462,508
104488477,506
104498521,488
104508569,507
104518585,512
104528630,509
104538676,502
104548692,509
104558737,509
104568781,501
104578795,506
104588840,507
104598889,506
104608909,509
104618958,507
104629005,506
104639019,508
104649058,508
104659102,508
104669141,506
104679153,502
104689202,506
104699245,506
104709258,507
104719302,505
104729346,505
104739359,508
104749401,510
104759443,506
104769457,505
104779501,499
104789547,504
104799564,500
104809611,505
104819660,506
104829674,505
104839722,510
104849770,502
104859782,505
104869825,503
104879871,510
104889890,505
104899942,504
104909991,506
104920042,508
104930060,508
104940107,503
104950153,508
104960170,512
104970222,512
104980274,518
104990296,524
105000350,519
105010400,525
105020420,524
105030466,526
105040511,532
105050526,530
105060573,530
105070623,527
105080642,521
105090694,518
105100745,518
105110763,518
105120814,512
105130863,515
105140880,506
105150929,512
105160977,506
105171028,509
105181048,500
105191101,508
105201153,499
105211170,505
105221219,499
105231268,501
105241288,503
105251337,503
105261382,498
105271397,503
105281447,505
105291492,505
105301511,507
105311560,509
105321607,509
105331626,510
105341675,509
105351724,507
105361742,504
105371791,504
105381838,504
105391855,508
105401902,496
105411953,507
105422007,507
105432027,507
105442078,504
105452130,508
105462151,502
105472203,508
105482254,506
105492277,508
105502330,504
105512382,506
105522404,503
105532454,508
105542502,508
105552516,500
105562564,503
105572612,509
105582628,506
105592676,505
105602722,500
105612737,505
105622782,499
105632827,501
105642844,504
105652889,505
105662934,502
105672985,505
105683001,505
105693043,508
105703088,506
105713102,505
105723144,501
105733189,501
105743203,505
105753247,504
105763294,506
105773313,510
105783359,512
105793408,512
105803425,514
105813471,516
105823522,520
105833543,519
105843595,508
105853648,523
105863668,531
105873717,525
105883766,522
105893785,526
105903835,522
105913883,517
105923930,517
105933945,509
105943991,511
105954038,514
105964054,509
105974102,501
105984148,509
105994163,507
106004212,506
106014259,503
106024274,504
106034319,506
106044366,503
106054383,499
106064432,503
106074481,498
106084500,505
106094549,508
106104599,501
106114618,508
106124668,504
106134715,511
106144731,508
106154777,509
106164823,508
106174869,507
106184885,505
106194928,510
106204972,507
106214990,507
106225037,506
106235085,507
106245101,508
106255144,499
106265191,503
106275206,509
106285252,506
106295296,501
106305310,500
106315355,500
106325397,503
106335411,505
106345453,507
106355495,504
106365508,508
106375555,506
106385597,499
106395608,506
106405655,510
106415704,505
106425752,505
106435767,508
106445816,508
106455862,501
106465876,507
106475915,505
106485957,505
106495968,501
106506017,500
106516067,507
106526088,499
106536142,506
106546195,500
106556217,507
106566269,510
106576322,505
106586339,510
106596389,512
106606442,515
106616461,520
106626508,520
106636554,529
106646570,528
106656617,527
106666665,534
106676713,533
106686733,526
106696781,527
106706828,520
106716846,519
106726890,519
106736937,522
106746953,519
106757003,509
106767052,513
106777072,511
106787121,510
106797172,505
106807195,504
106817246,508
106827293,500
106837313,505
106847361,504
106857412,505
106867432,497
106877486,497
106887542,505
106897562,499
106907612,506
106917660,507
106927708,506
106937727,509
106947775,508
106957821,503
106967836,508
106977878,504
106987926,511
106997949,510
107008002,507
107018051,504
107028072,506
107038121,508
107048176,507
107058198,508
107068250,522
107078298,499
107088317,503
107098368,505
107108421,503
107118443,509
107128497,500
107138552,507
107148573,508
107158625,507
107168678,509
107178729,502
107188748,511
107198800,503
107208850,508
107218867,506
107228917,508
107238966,506
107248985,503
107259034,506
107269085,503
107279103,504
107289152,508
107299199,506
107309213,509
107319262,503
107329310,509
107339325,507
107349370,501
107359416,509
107369434,510
107379481,503
107389529,505
107399546,511
107409595,510
107419645,509
107429693,514
107439713,520
107449762,523
107459812,528
107469835,528
107479886,535
107489937,528
107499957,528
107510008,535
107520058,533
107530076,531
107540124,528
107550173,521
107560190,515
107570236,517
107580282,517
107590302,515
107600352,516
107610402,512
107620419,508
107630467,507
107640512,505
107650528,506
107660576,502
107670625,484
107680673,502
107690690,497
107700736,499
107710782,506
107720795,503
107730838,498
107740886,506
107750902,505
107760948,505
107770992,506
107781010,503
107791059,503
107801108,509
107811126,512
107821173,509
107831217,503
107841233,509
107851281,503
107861324,505
107871338,503
107881385,504
107891431,506
107901447,504
107911494,505
107921540,508
107931585,501
107941600,501
107951646,501
107961691,508
107971704,510
107981747,503
107991790,506
108001801,508
108011843,508
108021885,503
108031897,508
108041942,501
108051988,501
108062006,508
108072055,502
108082106,500
108092125,508
108102172,509
108112218,510
108122233,504
108132276,499
108142322,508
108152338,508
108162384,508
108172432,503
108182478,507
108192492,507
108202537,507
108212578,505
108222593,501
108232642,506
108242686,502
108252699,505
108262744,499
108272790,503
108282803,502
108292847,507
108302889,506
108312896,512
108322934,513
108332974,516
108342984,522
108353025,523
108363065,527
108373076,533
108383119,533
108393159,538
108403173,534
108413218,535
108423262,534
108433308,531
108443323,525
108453367,524
108463409,517
108473420,521
108483461,511
108493504,513
108503518,506
108513563,509
108523604,507
108533616,505
108543660,501
108553703,504
108563712,505
108573751,508
108583790,506
108593801,502
108603841,500
108613882,503
108623891,501
108633928,504
108643966,507
108653973,504
108664010,507
108674048,509
108684087,506
108694099,503
108704140,510
108714179,511
108724189,512
108734226,512
108744262,511
108754271,510
108764309,504
108774348,509
108784355,511
108794393,505
108804432,509
108814444,507
108824491,507
108834536,508
108844551,507
108854594,502
108864637,500
108874646,502
108884686,507
108894726,505
108904736,505
108914777,508
108924821,504
108934863,505
108944873,506
108954912,501
108964953,506
108974963,507
108985006,506
108995049,502
109005064,500
109015110,509
109025156,503
109035168,510
109045212,510
109055255,506
109065268,508
109075313,510
109085359,510
109095374,503
109105419,502
109115464,501
109125472,500
109135505,508
109145540,504
109155549,505
109165587,509
109175628,501
109185668,507
109195680,500
109205724,504
109215763,507
109225772,504
109235812,500
109245856,510
109255869,514
109265911,518
109275956,517
109285970,520
109296010,531
109306059,535
109316075,534
109326125,537
109336175,530
109346192,534
109356242,527
109366289,525
109376304,526
109386349,525
109396393,519
109406407,519
109416453,514
109426495,508
109436537,506
109446553,508
109456602,510
109466647,503
109476663,504
109486712,508
109496759,501
109506773,503
109516823,504
109526873,502
109536890,499
109546939,506
109556989,504
109567006,505
109577055,504
109587105,503
109597121,511
109607167,507
109617215,504
109627232,510
109637280,506
109647328,510
109657347,508
109667395,504
109677442,507
109687488,507
109697502,500
109707547,507
109717593,507
109727611,504
109737661,504
109747711,509
109757730,506
109767779,507
109777827,506
109787843,502
109797894,507
109807941,509
109817959,501
109828010,508
109838061,499
109848080,505
109858128,507
109868179,506
109878198,505
109888244,507
109898297,502
109908323,507
109918380,506
109928429,506
109938480,506
109948499,508
109958556,506
109968611,505
109978636,505
109988692,510
109998747,504
110008771,508
110018825,511
110028873,504
110038894,507
110048945,508
110058998,503
110069018,508
110079064,507
110089107,505
110099123,512
110109168,513
110119214,514
110129230,521
110139277,525
110149323,526
110159338,532
110169386,532
110179432,535
110189477,532
110199495,533
110209541,528
110219589,529
110229605,529
110239652,523
110249697,520
110259710,517
110269753,513
110279794,513
110289807,514
110299854,509
110309901,510
110319919,500
110329965,502
110340010,504
110350026,504
110360071,500
110370112,503
110380128,500
110390175,503
110400224,499
110410238,500
110420284,502
110430333,506
110440380,501
110450395,505
110460439,505
110470484,505
110480500,508
110490546,512
110500590,506
110510607,510
110520655,506
110530701,511
110540716,503
110550763,510
110560809,507
110570829,510
110580875,506
110590921,502
110600939,503
110610986,505
110621034,500
110631053,501
110641101,506
110651149,505
110661167,500
110671214,502
110681259,501
110691305,506
110701316,506
110711360,500
110721404,509
110731420,509
110741467,506
110751514,507
110761532,503
110771580,499
110781631,502
110791652,508
110801703,509
110811752,508
110821770,503
110831818,507
110841867,503
110851885,501
110861934,502
110871980,508
110881996,506
110892044,507
110902091,507
110912113,508
110922159,508
110932209,504
110942260,505
110952278,504
110962328,507
110972378,511
110982396,501
110992442,506
111002487,509
111012502,513
111022549,519
111032593,522
111042609,530
111052656,534
111062704,536
111072719,532
111082763,536
111092808,536
111102824,529
111112869,528
111122916,527
111132935,517
111142984,518
111153029,516
111163044,514
111173091,513
111183138,505
111193185,505
111203198,509
111213244,505
111223289,506
111233302,498
111243344,506
111253389,499
111263403,496
111273445,503
111283491,503
111293509,499
111303558,504
111313610,502
111323628,507
111333674,506
111343718,507
111353733,507
111363776,508
111373822,510
111383833,510
111393877,505
111403920,506
111413934,507
111423981,505
111434027,511
111444073,506
111454090,501
111464136,504
111474174,502
111484185,499
111494228,505
111504269,505
111514282,502
111524324,505
111534366,503
111544378,502
111554420,507
111564462,510
111574473,501
111584518,506
111594563,508
111604574,503
111614617,509
111624659,508
111634671,504
111644713,507
111654755,505
111664766,506
111674808,507
111684852,508
111694895,498
111704909,506
111714949,503
111724992,502
111735005,504
111745050,497
111755095,507
111765105,505
111775147,502
111785193,503
111795206,507
111805251,509
111815294,507
111825303,505
111835345,502
111845390,508
111855403,502
111865448,507
111875488,505
111885502,506
111895544,503
111905585,501
111915597,509
111925640,508
111935686,517
111945726,524
111955734,526
111965773,530
111975814,533
111985824,533
111995868,534
112005910,533
112015925,530
112025966,531
112036008,527
112046018,520
112056064,524
112066108,516
112076121,518
112086163,508
112096205,511
112106219,508
112116264,509
112126308,511
112136323,505
112146367,504
112156409,503
112166424,500
112176469,505
112186514,501
112196559,497
112206574,505
112216619,497
112226665,504
112236679,507
112246724,500
112256773,511
112266790,511
112276836,509
112286881,513
112296893,509
112306939,509
112316986,504
112327002,507
112337053,509
112347109,509
112357133,505
112367187,511
112377236,506
112387253,507
112397297,507
112407341,509
112417353,508
112427399,506
112437447,502
112447494,507
112457508,507
112467551,508
112477595,502
112487613,509
112497661,504
112507709,507
112517727,504
112527774,505
112537823,505
112547839,502
112557885,501
112567930,502
112577947,506
112587996,508
112598044,506
112608062,508
112618108,502
112628153,508
112638170,504
112648215,506
112658262,504
112668277,503
112678319,501
112688360,502
112698405,508
112708424,502
112718467,507
112728510,499
112738523,505
112748568,505
112758616,509
112768632,512
112778678,509
112788726,516
112798743,517
112808790,525
112818835,528
112828854,530
112838900,529
112848947,531
112858962,529
112869008,532
112879052,531
112889065,528
112899110,525
112909153,518
112919173,517
112929221,515
112939266,513
112949311,509
112959326,510
112969373,508
112979419,499
112989434,505
112999480,501
113009525,505
113019535,503
113029581,498
113039628,508
113049643,501
113059691,499
113069735,508
113079750,504
113089794,511
113099840,507
113109854,512
113119900,510
113129949,511
113139966,512
113150012,504
113160059,509
113170079,502
113180128,508
113190177,507
113200226,502
113210237,500
113220281,505
113230323,506
113240337,506
113250383,508
113260430,501
113270447,506
113280495,506
113290541,507
113300556,506
113310602,508
113320650,503
113330668,508
113340717,506
113350765,500
113360779,510
113370826,500
113380875,502
113390894,507
113400942,503
113410991,507
113421007,507
113431056,508
113441103,507
113451151,508
113461167,507
113471217,507
113481266,510
113491282,507
113501329,510
113511375,510
113521392,508
113531440,507
113541488,503
113551506,507
113561557,509
113571608,500
113581626,508
113591673,501
113601723,502
113611745,503
113621793,510
113631844,516
113641864,520
113651915,524
113661962,527
113671980,527
113682028,531
113692077,529
113702124,536
113712144,531
113722195,533
113732243,531
113742261,528
113752312,525
113762365,518
113772387,518
113782436,509
113792485,514
113802506,512
113812558,504
113822611,511
113832633,503
113842685,502
113852735,507
113862756,497
113872807,502
113882860,497
113892881,503
113902932,501
113912979,504
113922998,504
113933049,506
113943102,504
113953150,505
113963170,505
113973220,506
113983273,511
113993295,509
114003346,509
114013391,512
114023410,510
114033457,505
114043507,508
114053529,511
114063581,500
114073632,507
114083654,509
114093707,502
114103757,504
114113774,506
114123824,504
114133874,505
114143898,508
114153952,504
114164005,504
114174027,504
114184080,502
114194131,503
114204183,506
114214204,508
114224256,509
114234310,508
114244332,501
114254387,510
114264441,506
114274465,502
114284517,508
114294568,500
114304590,507
114314639,508
114324689,507
114334708,504
114344754,508
114354803,508
114364825,510
114374879,505
114384931,506
114394952,508
114405002,501
114415054,504
114425073,508
114435122,506
114445172,503
114455222,512
114465241,514
114475292,516
114485345,521
114495363,526
114505417,529
114515473,531
114525494,536
114535548,526
114545600,528
114555619,528
114565669,530
114575718,529
114585737,522
114595788,518
114605842,513
114615862,518
114625910,513
114635956,514
114645976,512
114656023,506
114666074,510
114676094,508
114686145,504
114696197,504
114706249,505
114716266,498
114726314,496
114736365,497
114746380,501
114756428,504
114766476,505
114776492,500
114786539,509
114796587,509
114806605,507
114816652,507
114826700,512
114836718,510
114846772,509
114856823,506
114866841,504
114876889,510
114886938,508
114896958,500
114907004,500
114917056,503
114927075,501
114937127,489
114947179,502
114957228,506
114967247,502
114977296,499
114987345,507
114997365,499
115007417,508
115017467,500
115027485,508
115037537,502
115047589,507
115057610,506
115067661,507
115077715,506
115087736,508
115097785,503
115107831,503
115117848,510
115127894,506
115137944,502
115147963,506
115158014,502
115168060,500
115178080,504
115188128,506
115198179,511
115208226,501
115218242,507
115228294,505
115238343,509
115248362,508
115258413,506
115268467,503
115278484,511
115288528,509
115298574,508
115308591,508
115318641,516
115328691,511
115338711,522
115348758,524
115358802,520
115368815,531
115378863,525
115388912,531
115398932,526
115408981,533
115419029,521
115429049,526
115439097,521
115449145,512
115459196,518
115469216,515
115479266,511
115489316,511
115499331,506
115509379,505
115519427,507
115529448,507
115539499,505
115549550,503
115559573,502
115569623,504
115579675,497
115589695,503
115599748,505
115609800,507
115619822,506
115629869,501
115639913,508
115649927,510
115659973,516
115670021,507
115680039,503
115690086,509
115700134,507
115710180,510
115720197,501
115730246,510
115740298,503
115750315,505
115760365,502
115770412,508
115780433,510
115790487,503
115800540,506
115810560,507
115820608,499
115830656,507
115840674,500
115850724,502
115860771,505
115870786,509
115880833,503
115890880,506
115900893,501
115910935,502
115920979,507
115930992,505
115941035,500
115951076,509
115961119,508
115971133,501
115981177,508
115991220,508
116001234,507
116011280,509
116021326,507
116031342,506
116041390,508
116051435,509
116061448,507
116071493,508
116081536,507
116091548,510
116101592,503
116111638,508
116121654,507
116131701,504
116141749,507
116151765,509
116161812,518
116171858,521
116181877,521
116191922,527
116201967,526
116212010,524
116222021,531
116232061,532
116242102,527
116252116,529
116262157,525
116272199,516
116282211,521
116292252,517
116302297,508
116312306,513
116322352,508
116332398,510
116342413,506
116352460,508
116362509,500
116372525,498
116382573,508
116392619,503
116402633,504
116412678,504
116422720,506
116432732,502
116442773,507
116452814,502
116462859,508
116472874,506
116482920,504
116492968,509
116502980,512
116513026,506
116523072,512
116533087,511
116543131,509
116553176,507
116563190,506
116573239,508
116583288,507
116593298,503
116603342,500
116613387,505
116623401,508
116633448,501
116643494,504
116653509,502
116663555,505
116673598,503
116683615,501
116693659,500
116703707,508
116713755,505
116723772,506
116733819,506
116743864,505
116753881,508
116763931,502
116773979,501
116783996,502
116794042,503
116804090,508
116814108,499
116824158,505
116834208,509
116844228,509
116854280,509
116864331,502
116874352,507
116884402,503
116894452,505
116904472,503
116914518,502
116924565,501
116934578,502
116944623,503
116954671,508
116964719,510
116974737,513
116984785,516
116994830,515
117004840,521
117014880,524
117024924,528
117034937,525
117044984,530
117055032,531
117065046,530
117075094,526
117085142,521
117095159,523
117105205,519
117115251,522
117125266,520
117135312,509
117145357,514
117155372,514
117165416,511
117175457,508
117185468,508
117195510,508
117205555,505
117215603,503
117225621,506
117235667,504
117245712,506
117255729,504
117265771,507
117275813,504
117285824,503
117295865,499
117305911,506
117315927,509
117325976,503
117336023,511
117346037,511
117356082,505
117366127,512
117376140,507
117386187,506
117396232,509
117406250,507
117416297,509
117426344,510
117436359,500
117446401,505
117456442,502
117466485,504
117476496,503
117486541,506
117496585,505
117506598,508
117516643,505
117526690,502
117536702,507
117546744,508
117556789,506
117566803,507
117576848,504
117586892,507
117596906,503
117606954,504
117617001,509
117627016,508
117637059,505
117647102,509
117657115,505
117667159,508
117677202,510
117687213,509
117697257,506
117707301,509
117717345,504
117727360,509
117737403,507
117747448,505
117757466,507
117767512,508
117777556,510
117787562,507
117797601,505
117807641,516
117817657,519
117827704,518
117837753,522
117847771,529
117857819,530
117867864,534
117877878,531
117887919,534
117897962,527
117907975,526
117918020,521
117928064,522
117938079,521
117948124,515
117958166,512
117968208,512
117978221,513
117988264,512
117998312,508
118008328,502
118018373,504
118028418,499
118038435,504
118048484,501
118058527,502
118068542,502
118078590,497
118088637,502
118098652,499
118108698,503
118118747,506
118128768,507
118138818,504
118148868,502
118158884,509
118168930,506
118178975,511
118188991,505
118199039,509
118209089,509
118219138,504
118229158,511
118239205,507
118249254,508
118259271,508
118269319,503
118279368,508
118289388,498
118299440,503
118309490,507
118319510,502
118329559,500
118339607,491
118349625,503
118359673,508
118369722,510
118379740,508
118389788,507
118399834,504
118409848,508
118419898,507
118429946,509
118439965,502
118450014,501
118460061,506
118470108,506
118480126,505
118490174,508
118500218,503
118510240,500
118520295,509
118530348,502
118540373,503
118550432,506
118560489,503
118570511,510
118580561,503
118590608,499
118600627,502
118610676,503
118620724,505
118630739,502
118640789,508
118650838,506
118660854,505
118670906,512
118680956,513
118690975,516
118701025,524
118711076,530
118721125,531
118731143,531
118741192,532
118751238,533
118761255,532
118771303,525
118781348,530
118791364,526
118801413,521
118811463,513
118821483,516
118831535,513
118841585,514
118851600,511
118861650,503
118871699,504
118881719,504
118891768,508
118901814,508
118911829,505
118921875,498
118931924,502
118941941,503
118951986,502
118962031,504
118972078,505
118982093,502
118992142,500
119002191,502
119012209,507
119022258,505
119032304,506
119042320,509
119052368,509
119062418,510
119072436,510
119082484,507
119092530,504
119102545,509
119112593,502
119122641,510
119132658,507
119142707,502
119152755,508
119162768,506
119172813,502
119182858,502
119192876,502
119202920,503
119212966,501
119223011,508
119233026,504
119243072,501
119253117,509
119263134,508
119273180,508
119283226,501
119293239,510
119303282,506
119313329,503
119323342,506
119333384,502
119343425,504
119353438,503
119363482,508
119373525,508
119383540,503
119393586,510
119403628,503
119413646,509
119423693,504
119433738,502
119443757,505
119453806,503
119463854,506
119473903,494
119483920,508
119493968,506
119504019,508
119514036,510
119524085,508
119534133,507
119544151,501
119554200,500
119564248,510
119574268,509
119584316,504
119594368,514
119604388,515
119614438,522
119624489,527
119634512,530
119644561,530
119654608,536
119664628,529
119674681,531
119684738,534
119694756,522
119704804,528
119714851,525
119724902,521
119734923,520
119744971,516
119755019,509
119765037,505
119775085,512
119785131,502
119795146,505
119805194,507
119815240,508
119825256,504
119835304,500
119845352,500
119855369,497
119865419,503
119875466,502
119885484,498
119895532,504
119905580,507
119915596,506
119925644,506
119935690,501
119945706,503
119955754,510
119965801,505
119975847,510
119985862,509
119995910,504
120005956,507
120015973,505
120026020,511
120036063,504
120046077,504
120056122,510
120066169,505
120076183,503
120086230,508
120096280,500
120106298,508
120116346,506
120126394,504
120136410,501
120146457,509
120156505,508
120166521,503
120176571,507
120186619,504
120196636,507
120206681,506
120216726,504
120226773,500
120236789,509
120246834,505
120256878,506
120266893,500
120276938,506
120286982,507
120296998,507
120307045,507
120317090,506
120327103,504
120337147,508
120347188,503
120357203,503
120367249,503
120377298,510
120387318,503
120397367,509
120407414,512
120417433,507
120427481,509
120437530,504
120447551,510
120457600,510
120467651,511
120477704,504
120487725,511
120497777,507
120507826,506
120517847,514
120527897,518
120537943,525
120547960,527
120558007,530
120568056,534
120578076,533
120588126,534
120598177,537
120608195,531
120618242,530
120628292,530
120638307,516
120648355,519
120658405,518
120668425,513
120678470,509
120688518,512
120698537,506
120708585,508
120718634,503
120728682,510
120738700,506
120748747,505
120758796,498
120768813,506
120778863,503
120788912,501
120798933,506
120808984,508
120819034,500
120829050,509
120839098,509
120849149,510
120859168,508
120869216,503
120879266,510
120889281,512
120899324,511
120909368,508
120919382,510
120929427,510
120939472,505
120949490,512
120959538,509
120969584,509
120979629,509
120989643,505
120999688,506
121009728,499
121019740,507
121029781,502
121039826,506
121049843,504
121059891,502
121069937,508
121079950,499
121089999,500
121100049,507
121110064,509
121120110,509
121130155,501
121140171,507
121150215,509
121160259,502
121170271,506
121180316,507
121190358,504
121200370,507
121210413,509
121220456,505
121230498,510
121240508,508
121250546,508
121260585,508
121270601,507
121280647,502
121290695,510
121300710,509
121310757,503
121320804,509
121330823,507
121340871,507
121350917,503
121360929,504
121370969,503
121381011,506
121391029,504
121401077,508
121411124,509
121421142,505
121431191,504
121441239,510
121451255,508
121461303,512
121471351,516
121481397,520
121491410,523
121501454,524
121511498,525
121521512,530
121531556,528
121541596,525
121551606,526
121561650,519
121571694,523
121581704,521
121591749,513
121601795,511
121611809,514
121621854,511
121631903,507
121641918,501
121651965,508
121662009,505
121672024,506
121682069,504
121692119,503
121702136,498
121712180,506
121722229,502
121732280,506
121742301,509
121752350,505
121762394,504
121772407,503
121782454,501
121792503,504
121802519,505
121812562,508
121822610,510
121832627,512
121842674,512
121852722,510
121862739,506
121872781,507
121882824,509
121892841,507
121902889,508
121912935,501
121922952,505
121932997,499
121943045,507
121953064,501
121963112,506
121973158,508
121983205,508
121993219,504
122003265,508
122013311,502
122023325,509
122033369,499
122043416,509
122053433,507
122063480,509
122073527,509
122083544,502
122093590,508
122103637,509
122113653,502
122123695,503
122133742,503
122143757,506
122153803,505
122163847,506
122173859,506
122183904,503
122193948,507
122203962,506
122214005,505
122224050,502
122234095,506
122244109,502
122254156,504
122264202,507
122274217,503
122284263,506
122294307,507
122304319,508
122314363,510
122324408,511
122334425,510
122344473,513
122354521,521
122364538,524
122374584,528
122384630,531
122394644,529
122404696,527
122414747,531
122424765,525
122434814,529
122444863,529
122454880,524
122464928,517
122474974,514
122485020,511
122495030,515
122505076,511
122515121,508
122525136,508
122535181,507
122545223,505
122555235,500
122565279,505
122575323,499
122585338,505
122595382,501
122605427,506
122615439,501
122625482,507
122635526,502
122645538,506
122655583,507
122665629,503
122675646,508
122685690,510
122695736,505
122705751,511
122715796,512
122725841,504
122735886,510
122745903,502
122755949,511
122765997,503
122776014,509
122786060,510
122796107,508
122806121,503
122816165,508
122826212,501
122836229,503
122846273,509
122856315,509
122866329,501
122876373,505
122886415,506
122896432,507
122906480,507
122916525,503
122926541,502
122936586,499
122946629,503
122956642,508
122966685,508
122976729,501
122986777,499
122996791,502
123006839,509
123016889,508
123026908,504
123036956,503
123047005,510
123057020,506
123067067,509
123077116,508
123087131,508
123097178,504
123107223,508
123117236,505
123127280,506
123137323,506
123147337,506
123157382,500
123167427,507
123177442,509
123187486,509
123197530,508
123207542,514
123217586,505
123227628,514
123237670,515
123247678,519
123257720,527
123267764,531
123277779,527
123287822,530
123297867,532
123307881,531
123317927,525
123327969,525
123337981,524
123348028,518
123358076,517
123368091,510
123378135,516
123388178,507
123398194,504
123408240,509
123418286,502
123428304,504
123438350,509
123448396,506
123458412,501
123468458,502
123478503,506
123488548,504
123498561,499
123508606,502
123518654,506
123528669,506
123538712,506
123548757,500
123558770,506
123568815,506
123578855,510
123588863,507
123598908,509
123608952,508
123618962,510
123629005,507
123639051,510
123649065,509
123659112,507
123669161,507
123679174,504
123689220,505
123699261,502
123709268,509
123719307,505
123729346,506
123739390,500
123749401,499
